Time,Signal_1
0.0,174.543893129771
0.03203333333333334,173.27793167128345
0.06393333333333334,174.40146654445462
0.09596666666666667,174.02027649769585
0.12810000000000002,173.55072463768116
0.16016666666666668,173.02242152466368
0.19196666666666667,173.01187214611872
0.22403333333333333,173.80952380952382
0.25603333333333333,173.05737704918033
0.3039,173.62184873949582
0.33593333333333336,173.83501374885427
0.3678666666666667,173.39232209737827
0.3999666666666667,173.43744120413925
0.4318666666666667,173.47297297297297
0.4639666666666667,173.44558139534885
0.496,173.847866419295
0.5281,173.43862987630828
0.5600666666666667,173.35489833641404
0.5920666666666667,173.8181818181818
0.624,173.83209647495363
0.672,173.73452157598499
0.7039666666666667,173.58333333333334
0.7360666666666666,173.8125
0.7681666666666667,173.3998203054807
0.8000333333333334,173.38
0.8319333333333334,173.68430656934305
0.864,173.5875912408759
0.8961,173.78990825688075
0.9281333333333334,173.20994475138122
0.9599666666666667,173.94688644688645
0.9919666666666667,172.72836095764274
1.0398666666666667,172.82588878760254
1.0718666666666667,172.71467639015498
1.1040666666666668,172.6362807657247
1.1359000000000001,172.60340196956133
1.1679000000000002,172.63770794824399
1.1999,173.33333333333334
1.2321,173.0622140896615
1.264,173.20575022461816
1.2959333333333334,173.00091157702826
1.3283,173.30482256596906
1.3759666666666668,173.3034420289855
1.4080666666666668,173.05494505494505
1.4401000000000002,173.1069809610154
1.4720666666666666,173.58233670653175
1.504,173.38919413919413
1.5361333333333334,173.67000911577028
1.5681,173.6982680036463
1.6000333333333336,173.74750227066303
1.6321,173.81548154815482
1.6642666666666668,173.2603116406966
1.6961666666666668,173.52453166815343
1.744,173.53962600178093
1.7760666666666667,173.65086599817684
1.8080666666666667,173.2279888785913
1.8401333333333334,173.34505087881593
1.8722,173.20164986251146
1.9040666666666668,172.90343546889508
1.9360666666666668,172.93814432989691
1.9680333333333335,173.78324225865208
2.0002666666666666,173.41030358785648
2.0320333333333336,173.5271389144434
2.064,173.23180592991915
2.1120333333333337,173.13563829787233
2.1439666666666666,173.66248880931064
2.1760333333333333,173.5496453900709
2.2081666666666666,173.62589928057554
2.240066666666667,173.40570377184912
2.2720333333333333,173.5939447907391
2.3041,173.56848701880037
2.3359333333333336,173.89652014652015
2.3680333333333334,173.70609318996415
2.4000666666666666,173.36497695852535
2.4479333333333333,173.50766456266905
2.479966666666667,173.6436884512086
2.5120666666666667,173.50443262411346
2.5440333333333336,173.3256021409456
2.575966666666667,173.71787960467208
2.6082666666666667,173.83699633699635
2.640166666666667,173.65135135135137
2.6721333333333335,173.73014440433212
2.7040333333333333,173.5193171608266
2.7361,173.85714285714286
2.7682,173.60940325497288
2.8161,173.76739926739927
2.8480000000000003,173.72893772893772
2.8800333333333334,173.68406593406593
2.9120333333333335,173.40840035746203
2.9441,173.30163043478262
2.976033333333334,173.3040780141844
3.008,173.35975066785394
3.0403000000000002,173.08985765124555
3.0721999999999996,173.64581416743331
3.1040333333333336,173.70009199632014
3.1360333333333337,173.60717571297147
3.1839666666666666,173.8981064021641
3.216066666666667,174.1578947368421
3.248066666666667,174.0410583941606
3.2801666666666667,174.23626373626374
3.3120333333333334,174.00372093023256
3.3440333333333334,173.92732290708372
3.375966666666667,173.83651226158037
3.4080333333333335,173.81471389645776
3.439966666666667,174.00887311446317
3.4721333333333333,173.75090252707582
3.5200666666666667,173.6959219858156
3.551966666666667,173.62773722627736
3.5840666666666667,173.7581818181818
3.6160666666666668,173.40235081374323
3.6480333333333337,173.3219871205152
3.680066666666667,173.41494149414942
3.7121333333333335,173.6310502283105
3.7441333333333335,173.92482517482517
3.7761,173.5710455764075
3.808066666666667,173.32688766114182
3.840066666666667,173.71662125340598
3.887866666666667,173.62603116406967
3.9201000000000006,173.65970961887476
3.9520333333333335,173.2436974789916
3.984,173.35714285714286
4.016066666666667,173.76687668766877
4.048133333333333,173.7554945054945
4.080033333333334,173.90064397424104
4.112033333333334,173.82142857142858
4.144033333333334,173.72893772893772
4.176033333333334,173.731684981685
4.207966666666667,173.73722627737226
4.256,173.8421524663677
4.287866666666667,174.05555555555554
4.3199000000000005,174.00544959128064
4.352,173.7829246139873
4.383933333333333,173.84867821330903
4.415966666666667,173.9352780309936
4.447866666666667,174.10795974382435
4.4801,173.88969917958067
4.512166666666667,173.8158614402917
4.544033333333333,173.79489516864174
4.591866666666667,173.7384196185286
4.6239,173.66362807657248
4.6559333333333335,174.31278748850045
4.688066666666667,173.85947416137805
4.7199333333333335,174.03768382352942
4.752366666666667,174.14652014652015
4.784,174.07090909090908
4.816233333333334,173.59501845018448
4.848033333333333,173.48858447488584
4.88,173.84363636363636
4.912100000000001,174.24581005586592
4.959933333333334,173.71750902527077
4.992,173.67000911577028
5.024133333333333,174.3248407643312
5.055933333333334,174.62649494020238
5.088033333333334,174.8003663003663
5.120166666666667,173.86764705882354
5.152,173.86159486709442
5.184033333333334,174.48043676069153
5.216,174.57962962962964
5.248200000000001,174.14658273381295
5.280166666666667,174.17046490428442
5.3281,174.21660649819495
5.360133333333334,174.10714285714286
5.391966666666667,174.22735346358792
5.424033333333334,174.6988171064604
5.456133333333334,174.53488372093025
5.488,174.4826357969724
5.520033333333334,174.21293800539084
5.552066666666667,174.3893967093236
5.584066666666667,175.04950495049505
5.6160000000000005,174.7884267631103
5.663966666666667,174.5728328865058
5.696033333333333,175.094897045658
5.727966666666667,174.6908752327747
5.760166666666667,174.78229448961156
5.792066666666667,174.73014440433212
5.824033333333333,174.3345521023766
5.8561000000000005,174.3580586080586
5.888133333333333,174.27140255009107
5.920066666666667,173.9454382826476
5.9520333333333335,174.33180987202925
5.9840333333333335,174.2986547085202
6.032100000000001,174.12720848056537
6.063933333333333,174.49818511796732
6.096133333333333,174.0956678700361
6.128,174.32879200726612
6.160066666666667,174.32566697332106
6.191966666666667,174.40109389243392
6.2241333333333335,174.53974121996302
6.256066666666667,174.4368131868132
6.288066666666667,173.90767824497257
6.320033333333334,173.1813953488372
6.368,172.66727272727272
6.4,172.9053201082056
6.431966666666667,172.2797783933518
6.464066666666667,171.54129263913825
6.496066666666667,171.19234275296262
6.528166666666667,171.7790594498669
6.560166666666667,172.0152603231598
6.5920000000000005,171.8291366906475
6.6240000000000006,171.71134941912422
6.656166666666667,171.50965961361544
6.688066666666667,171.639374425023
6.735966666666667,171.5949953660797
6.767933333333334,171.41495992876224
6.799966666666667,171.72702205882354
6.832033333333333,171.90892364305427
6.864033333333333,171.70844939647168
6.896166666666667,171.4289592760181
6.928,171.69007490636704
6.960066666666668,171.6
6.992,171.43796296296296
7.024,170.33605812897366
7.056100000000001,170.41053587647593
7.103966666666667,170.61987237921605
7.135800000000001,170.77460901563938
7.1681333333333335,170.9065934065934
7.2,170.8543165467626
7.231966666666667,170.73436083408885
7.264,170.72710622710622
7.296066666666667,170.62306993642142
7.328166666666667,170.7538601271571
7.360066666666667,170.69735642661806
7.391933333333333,170.6975476839237
7.439966666666667,170.95397111913357
7.472,171.38454461821527
7.504066666666667,171.27162790697676
7.536133333333334,171.36487716105552
7.568133333333334,170.86763372620126
7.600133333333334,171.4046511627907
7.632133333333334,171.16372093023256
7.664000000000001,171.2851885924563
7.696066666666667,171.38351254480287
7.7279333333333335,171.17610062893084
7.7602,170.84615384615384
7.808066666666667,171.11363636363637
7.8401000000000005,170.60526315789474
7.872000000000001,171.17260273972602
7.9040333333333335,171.14404432132963
7.936166666666667,170.98252069917203
7.968066666666667,170.5819158460161
8.000033333333334,170.7791519434629
8.032066666666667,169.63969896519285
8.064133333333334,170.52380952380952
8.096166666666667,170.6056466302368
8.127966666666667,170.8334858188472
8.176133333333334,170.43517679057118
8.208066666666667,170.23427529626252
8.240066666666667,170.5157515751575
8.272133333333334,170.42484248424842
8.304,170.89382940108894
8.336066666666667,170.97101449275362
8.368066666666667,170.78196872125116
8.400266666666667,170.92151431209604
8.432,171.0156971375808
8.464,170.99084249084248
8.511966666666668,171.06828391734052
8.543966666666668,171.0362647325476
8.576,170.6584249084249
8.608266666666667,170.71760500446828
8.640033333333333,170.3539741219963
8.672033333333333,170.27669452181988
8.704133333333333,170.34798534798534
8.7361,170.58946412352407
8.768133333333333,170.7842248413418
8.800066666666668,170.63215258855584
8.832166666666668,170.7140238313474
8.880033333333333,170.73150684931505
8.912066666666668,170.91613491340019
8.944033333333334,170.46478873239437
8.976033333333334,170.8208679593721
9.007933333333334,170.77767612076855
9.040166666666668,170.8967741935484
9.072033333333334,170.94995450409465
9.104000000000001,170.7249310027599
9.136033333333334,170.53901996370234
9.168133333333333,170.4221198156682
9.2001,170.83621474067334
9.247966666666667,170.67625899280577
9.279966666666667,170.65827338129498
9.312000000000001,170.80610412926393
9.344000000000001,171.13260672116257
9.376166666666666,170.3980054397099
9.408000000000001,170.55942806076854
9.439933333333334,170.86108555657773
9.472133333333334,170.61215370866844
9.504000000000001,170.58897922312556
9.536100000000001,170.33000906618312
9.583933333333334,170.6236462093863
9.616033333333334,170.7388939256573
9.647933333333334,170.44673231871084
9.680166666666667,170.6949152542373
9.712033333333334,170.90161001788908
9.744,170.65709156193896
9.776033333333334,171.29362880886427
9.808133333333334,171.28623188405797
9.840066666666667,171.2614968440036
9.871866666666667,170.63846838824577
9.904,170.692238267148
9.952,170.6902417188899
9.984033333333334,170.84861976847728
10.016033333333334,170.6718322698268
10.048,170.78046594982078
10.080033333333335,170.64405286343614
10.1121,170.38134057971016
10.144166666666667,170.57425742574256
10.176033333333335,170.72930232558141
10.208133333333334,170.55311355311355
10.2402,170.651865008881
10.272,170.33030852994554
10.320033333333333,170.9742679680568
10.352033333333333,171.0831024930748
10.384033333333333,171.41871026339692
10.4161,171.47102115915362
10.4482,171.42857142857144
10.4801,171.43187889581478
10.512,171.80505415162455
10.544066666666668,171.40346083788708
10.576166666666667,171.72529465095195
10.6081,171.21062271062272
10.6561,171.30769230769232
10.687933333333334,171.34913400182316
10.7199,171.1237579042457
10.752133333333333,171.12179487179486
10.7841,171.02540834845735
10.816033333333333,170.99818511796732
10.848066666666668,171.48666053357866
10.8802,171.4412032816773
10.9121,171.5397676496872
10.944033333333334,171.0879218472469
10.9761,171.01363636363635
11.023966666666666,171.15192135835568
11.056033333333334,170.33212996389892
11.0882,169.97148114075438
11.120066666666666,170.28113553113553
11.151933333333334,170.44849589790337
11.184000000000001,170.51795332136444
11.216133333333334,170.49955476402494
11.248133333333334,170.32515894641236
11.280066666666666,170.3242506811989
11.312066666666666,170.48619768477292
11.3442,170.448401826484
11.392100000000001,170.85049239033125
11.424100000000001,170.73646209386283
11.456100000000001,170.68299198575244
11.488033333333334,170.5250227479527
11.520166666666666,170.41826484018264
11.552066666666667,170.53021978021977
11.584000000000001,170.58168761220827
11.616133333333334,170.75405405405405
11.648200000000001,170.42701722574796
11.680200000000001,170.41117216117217
11.728100000000001,170.58891867739052
11.759966666666667,170.32284172661872
11.7919,170.55882352941177
11.824,170.6016333938294
11.856133333333334,170.52228163992868
11.888033333333334,170.77450980392155
11.920066666666667,170.8302055406613
11.951933333333335,170.55138516532617
11.984133333333334,170.83378256963164
12.0159,170.70904207699195
12.0481,170.98746642793196
12.0961,171.42268984446477
12.128,171.08491418247516
12.1601,170.93339416058393
12.192133333333334,170.7459749552773
12.224066666666667,171.14169675090253
12.256066666666667,171.15523465703973
12.288166666666667,171.11313868613138
12.320066666666667,171.46781504986402
12.352133333333335,171.4873873873874
12.384066666666667,171.41787003610108
12.4161,171.46256684491976
12.464,171.2118721461187
12.496166666666667,171.42335115864526
12.528,171.53859964093357
12.560133333333335,171.3287795992714
12.591966666666668,171.40196078431373
12.624233333333335,171.4126559714795
12.656066666666668,171.29808568824066
12.688066666666668,171.3114311431143
12.720133333333333,171.53734061930783
12.7522,171.59166666666667
12.800033333333333,171.52276867030966
12.831866666666667,171.38038496791935
12.863866666666667,171.4435411020777
12.895900000000001,171.49358974358975
12.928033333333333,171.36206896551724
12.9602,171.37340619307832
12.991900000000001,171.24931506849313
13.024033333333334,171.68778280542986
13.0561,170.68136813681366
13.088066666666668,170.7479892761394
13.120033333333334,170.6442220200182
13.167966666666667,171.04395604395606
13.200000000000001,171.3021582733813
13.232033333333332,171.1934306569343
13.264100000000001,170.96768236380424
13.295966666666667,171.17090909090908
13.328166666666668,171.0514705882353
13.360100000000001,171.0757299270073
13.392133333333334,171.02573529411765
13.424066666666665,171.13126709206927
13.456066666666668,171.17738970588235
13.488066666666667,170.71099290780143
13.536000000000001,170.89766606822263
13.568100000000001,171.09751609935603
13.600066666666667,171.0081818181818
13.632033333333334,171.21872103799814
13.664100000000001,171.45253456221198
13.696133333333334,171.2766544117647
13.728000000000002,171.11306765523634
13.760033333333334,171.13051470588235
13.791966666666667,170.72065514103733
13.824133333333334,170.67747747747748
13.8719,170.6959706959707
13.904033333333334,170.5970695970696
13.936033333333334,171.17430368373766
13.968066666666667,171.6547619047619
14.000166666666667,171.3714539007092
14.032133333333334,171.12981199641897
14.064033333333334,170.90138248847927
14.0961,171.01103955841765
14.127966666666667,170.55045045045046
14.160033333333335,170.06805807622504
14.191966666666668,170.9313186813187
14.2401,170.79039704524467
14.271933333333333,170.93812556869884
14.304033333333335,171.05287146763902
14.336166666666667,171.02790279027903
14.368066666666667,171.13279857397504
14.400033333333335,171.0508166969147
14.432066666666667,171.2153708668454
14.464166666666667,171.0934664246824
14.496133333333335,171.22252252252252
14.527933333333333,170.71285323609845
14.575866666666668,170.72710788757934
14.607966666666668,170.7779783393502
14.64,170.68579234972677
14.672166666666667,170.98039215686276
14.704133333333335,170.53860294117646
14.736033333333333,170.53860294117646
14.768133333333335,170.745960502693
14.800333333333334,170.73651079136692
14.8321,170.8096539162113
14.8641,170.61615245009074
14.896066666666668,170.66176470588235
14.943900000000001,170.56227106227107
14.976,170.54238833181404
15.008,170.50590372388737
15.040066666666668,170.54090909090908
15.072033333333334,170.4982174688057
15.104133333333333,170.70117011701169
15.136066666666668,171.0438282647585
15.168033333333334,170.8906955736224
15.2002,170.86763372620126
15.232166666666668,170.8887876025524
15.2642,170.57617728531855
15.312100000000001,170.50925925925927
15.343900000000001,170.5095890410959
15.376000000000001,170.39444444444445
15.408000000000001,170.30277777777778
15.440066666666665,170.44109589041096
15.472100000000001,170.41117216117217
15.504033333333334,170.516333938294
15.536066666666667,170.47619047619048
15.568200000000001,170.39174311926607
15.600033333333334,170.48443223443223
15.648033333333334,170.48291782086795
15.679966666666667,170.66666666666666
15.711966666666667,170.73080397470642
15.744100000000001,170.6421435059037
15.776100000000001,170.71978021978023
15.808100000000001,170.00090334236674
15.839966666666667,170.77747502270662
15.872066666666667,170.83731617647058
15.904033333333334,170.71597096188748
15.936100000000001,170.94175627240142
15.968200000000001,170.84191176470588
16.016033333333333,170.83590208522213
16.048000000000002,170.84636363636363
16.0801,170.53064958828912
16.112066666666667,171.27966881324747
16.144066666666667,170.59945504087193
16.176000000000002,170.89623507805325
16.208133333333333,170.80308529945552
16.239966666666668,170.81447124304268
16.271966666666668,170.7632058287796
16.3042,170.83595922150138
16.336233333333332,170.83046237533998
16.3841,170.7925045703839
16.416,171.38440616500452
16.448033333333335,171.39437896645512
16.480066666666666,171.23035230352303
16.512133333333335,171.70994475138122
16.54416666666667,171.27885503231764
16.576033333333335,171.74504504504506
16.608,171.242700729927
16.6402,171.6046511627907
16.672066666666666,171.52787769784175
16.719966666666668,171.30698529411765
16.751966666666668,171.32881662149953
16.784000000000002,171.33787465940054
16.816066666666668,171.4868778280543
16.848166666666668,171.58620689655172
16.880100000000002,171.94855595667872
16.912133333333337,171.37297297297297
16.944100000000002,171.39259927797835
16.976133333333333,170.96080218778485
17.008033333333334,171.37360594795538
17.040066666666668,171.39341262580055
17.087866666666663,170.09740840035747
17.12,170.89670932358317
17.152,171.05636363636364
17.184033333333335,170.9552919708029
17.216066666666666,170.95086442220202
17.248133333333335,171.15583259127337
17.2802,170.84552845528455
17.312166666666666,171.0321141837645
17.344133333333335,171.3049773755656
17.3761,170.99630655586333
17.4082,170.8319928507596
17.456033333333334,171.09945750452079
17.4881,171.3054054054054
17.520033333333334,171.53220035778176
17.552033333333334,171.3473877176902
17.584033333333334,170.86697674418605
17.616133333333334,170.7998171846435
17.64806666666667,170.90126811594203
17.68006666666667,171.4611829944547
17.712,170.6193895870736
17.74416666666667,170.99535747446612
17.792066666666667,171.02917046490427
17.8241,170.98443223443223
17.855966666666667,170.70912375790425
17.888033333333333,170.62408088235293
17.9201,170.79494128274615
17.9521,170.86756756756756
17.983966666666667,170.95675675675676
18.0161,170.80692167577413
18.0482,171.0053380782918
18.0802,170.2520398912058
18.112066666666667,170.26654578422483
18.16,170.32558139534885
18.192,170.43832020997377
18.22403333333333,170.29448961156277
18.256133333333334,169.96768236380424
18.28803333333334,170.0146654445463
18.320033333333335,170.20343580470163
18.352,170.0290909090909
18.384033333333335,169.92237442922374
18.415933333333335,170.02828467153284
18.4483,170.10743061772604
18.480033333333335,170.16515426497276
18.527933333333333,170.21683440073193
18.560100000000002,170.32142857142858
18.592100000000002,170.29305680793507
18.624033333333333,170.1809090909091
18.656100000000002,170.0943396226415
18.688100000000002,170.3405017921147
18.720066666666668,170.90099909173477
18.752066666666668,170.42007104795738
18.784033333333333,170.49371633752244
18.816233333333333,170.62308385933272
18.863866666666667,170.31227436823104
18.8961,169.96869409660107
18.928,170.87038703870385
18.960066666666666,170.83930211202937
18.992,170.4959785522788
19.024133333333335,170.27813357731017
19.056033333333335,170.3608617594255
19.088066666666666,170.3757904245709
19.120033333333335,170.68880800727936
19.152166666666666,170.55925925925928
19.184066666666666,170.50705550329258
19.23186666666667,170.6261343012704
19.26386666666667,170.7557603686636
19.29596666666667,170.70440251572327
19.328166666666668,170.7083716651334
19.3602,170.56569343065692
19.39196666666667,170.55383211678833
19.424,170.5792792792793
19.456166666666668,170.63195691202873
19.488133333333334,170.78276481149013
19.52006666666667,170.69299820466787
19.55206666666667,170.7531418312388
19.600066666666667,170.44790739091718
19.631933333333333,170.64504504504504
19.6641,170.83075523202913
19.695933333333333,170.91399817017384
19.728133333333336,171.2784926470588
19.7601,171.2105742935278
19.792166666666667,171.23988711194733
19.824066666666667,171.0517082179132
19.856033333333333,170.8648401826484
19.888033333333333,170.80129990714948
19.93596666666667,170.4921803127875
19.96806666666667,170.8592456301748
20.000033333333334,171.1742700729927
20.032033333333334,170.86660533578657
20.064,170.63503649635035
20.096133333333334,169.78740875912408
20.128033333333335,169.96918767507003
20.1603,170.24358974358975
20.192033333333335,170.7215073529412
20.22416666666667,170.44098810612994
20.2561,170.14638609332115
20.304100000000002,170.39288969917956
20.336033333333333,170.19030192131748
20.368033333333333,170.5216606498195
20.400000000000002,169.66130473637176
20.432133333333333,170.24042742653606
20.464033333333333,170.78307830783078
20.496000000000002,170.77062556663645
20.528066666666668,170.78494623655914
20.560066666666668,170.61111111111111
20.592066666666668,171.08393501805054
20.624000000000002,170.71082089552237
20.671966666666666,170.03932584269663
20.703966666666666,170.24727272727273
20.736133333333335,170.50046168051708
20.768033333333335,170.6560218978102
20.8002,170.25912408759123
20.832033333333335,170.3220802919708
20.8641,170.41858325666973
20.89616666666667,170.8175248419151
20.928066666666666,171.4959349593496
20.9599,171.13320999074932
21.0079,171.2025202520252
21.03996666666667,171.47294776119404
21.072100000000002,171.16093023255814
21.104033333333334,169.76053639846742
21.136033333333334,170.35180055401662
21.168100000000003,170.45238095238096
21.200366666666667,170.38246268656715
21.232,170.49030470914127
21.2639,170.55280073461893
21.295899999999996,170.1985361390668
21.328,170.3302836230558
21.375966666666667,170.0128087831656
21.408033333333336,170.11382878645344
21.440166666666666,170.21863468634686
21.471866666666667,170.29335793357933
21.504033333333336,170.38227146814404
21.535966666666667,170.45496750232127
21.567966666666667,170.4022450888681
21.599933333333333,170.77949183303085
21.632066666666667,170.60753676470588
21.664066666666667,170.5831087151842
21.695933333333333,170.7121495327103
21.74386666666667,170.5824074074074
21.77586666666667,170.52700186219738
21.80786666666667,170.55068493150685
21.839966666666665,170.53804347826087
21.87186666666667,170.63611859838275
21.904,170.6451033243486
21.936,170.62353998203056
21.968,170.54680259499537
21.9999,170.66941391941393
22.0319,170.6593607305936
22.079866666666668,170.73630454967503
22.111866666666668,169.55059252506837
22.144033333333333,170.74249317561421
22.176133333333336,170.34758871701547
22.207900000000002,170.5822669104205
22.239866666666668,170.33972602739726
22.272000000000002,170.4173591874423
22.303900000000002,170.49725274725276
22.336033333333333,170.6763901549681
22.368033333333333,171.16378525932666
22.4004,170.88703703703703
22.448,170.66819431714023
22.480133333333335,170.84719710669077
22.5121,170.5832575068244
22.544033333333335,170.56290174471994
22.576033333333335,170.0514440433213
22.60816666666667,170.21447721179624
22.64006666666667,170.39633027522936
22.672099999999997,170.41312056737587
22.7039,170.8426258992806
22.7362,171.07142857142858
22.784100000000002,170.45218945487042
22.815966666666668,170.72419928825622
22.848033333333333,170.87876025524156
22.880033333333333,170.7447774750227
22.912133333333337,170.25022341376228
22.944133333333333,170.32918149466192
22.976033333333334,170.77969174977335
23.008100000000002,171.10127737226276
23.040166666666668,170.72388737511352
23.072100000000002,171.29072907290728
23.104033333333334,169.3536804308797
23.152,169.6119673617407
23.184,170.36917562724014
23.215966666666667,170.35443037974682
23.248166666666666,170.4725776965265
23.2802,170.68297101449275
23.312033333333336,170.09784560143626
23.344,170.64305177111717
23.376133333333335,170.80128205128204
23.408033333333336,170.45284697508896
23.440066666666667,170.66485013623978
23.4721,170.21453900709218
23.519933333333334,170.5453728661276
23.55196666666667,170.88486536675953
23.5841,170.66483516483515
23.616,170.8240072202166
23.648033333333334,170.71663619744058
23.680200000000003,170.86535008976662
23.71216666666667,170.62823949955316
23.744033333333334,170.8411131059246
23.7761,170.6891143911439
23.808133333333334,170.58671586715866
23.855933333333333,171.06734317343174
23.888066666666667,171.1022099447514
23.919933333333333,170.72047970479704
23.952033333333336,171.18589743589743
23.983966666666667,171.08755760368663
24.016233333333336,170.9628623188406
24.0481,170.82133090246126
24.080033333333333,170.66848816029145
24.112033333333333,170.35833333333335
24.1441,170.89699179580674
24.176066666666667,170.50091743119268
24.224133333333334,170.60861594867094
24.25596666666667,170.60452488687784
24.2879,170.56244384546272
24.32016666666667,170.85857664233575
24.352,170.42936288088643
24.384,170.5601851851852
24.415933333333335,170.51992585727527
24.448233333333334,170.75625579240037
24.4802,170.78952205882354
24.51206666666667,170.56736938588452
24.544033333333335,170.9349593495935
24.592000000000002,170.9265890778872
24.623966666666668,170.84007352941177
24.656233333333333,170.5013799448022
24.688033333333333,170.45985401459853
24.720066666666668,170.72816399286987
24.752066666666668,170.80723981900454
24.784133333333333,170.59485815602835
24.816033333333333,170.56569343065692
24.847966666666668,170.8639705882353
24.880166666666668,170.8962962962963
24.927966666666666,170.43120960295474
24.9601,170.79039704524467
24.9921,171.12912087912088
25.024033333333335,170.85687903970452
25.056066666666666,170.86334256694366
25.08816666666667,170.87989080982712
25.120066666666666,170.06980961015412
25.1521,170.3477088948787
25.184033333333335,170.8677536231884
25.216166666666666,170.903934126258
25.248166666666666,171.2058823529412
25.296133333333334,170.65504587155965
25.328000000000003,170.4779756326148
25.360033333333334,170.8761904761905
25.39186666666667,170.707635009311
25.424133333333334,171.11487758945384
25.456033333333334,171.567843866171
25.488100000000003,171.57434944237917
25.520133333333334,171.66913809082484
25.55216666666667,171.32468694096602
25.58406666666667,172.1148587055606
25.6159,171.80092592592592
25.663966666666667,171.9733455882353
25.695866666666667,171.35147601476015
25.728233333333336,171.65129151291512
25.7602,171.42477064220185
25.792,171.44260789715335
25.8241,171.4138888888889
25.856166666666667,171.10139534883723
25.888033333333336,171.32479414455628
25.9201,170.68962350780532
25.9521,170.88273314866112
26.00006666666667,170.5114573785518
26.032033333333334,170.66574074074074
26.0641,170.27885503231764
26.096,170.3217636022514
26.127933333333335,170.7945205479452
26.16,170.7145471180238
26.1921,171.056325023084
26.22403333333333,171.34
26.25606666666667,171.21278538812786
26.288,171.5018315018315
26.3202,170.9359430604982
26.368100000000002,170.9963436928702
26.400066666666667,171.6189608021878
26.432033333333333,171.10593607305935
26.464066666666664,171.34810710987995
26.496133333333333,171.79664179104478
26.528033333333333,171.2671546203111
26.559933333333333,171.56148713060057
26.591966666666668,171.2638762511374
26.624166666666667,171.14259429622814
26.656033333333333,170.86351228389447
26.688033333333333,171.08348294434472
26.735966666666666,170.84167424931758
26.768033333333335,171.09575429087624
26.800233333333335,170.82438580527753
26.83216666666667,171.1838034576888
26.864,170.9628959276018
26.896033333333335,171.04661791590493
26.927966666666666,171.06605504587156
26.96016666666667,171.0853994490358
26.991966666666666,170.87477477477478
27.0241,171.11612903225807
27.072100000000002,171.04208600182983
27.10396666666667,170.96399639963997
27.136166666666668,170.18676337262013
27.168033333333334,170.34941912421806
27.200200000000002,170.52972972972972
27.232100000000003,170.41037306642403
27.264166666666668,170.338904363974
27.296166666666668,170.2830540037244
27.32806666666667,170.1629213483146
27.35996666666667,170.35401459854015
27.392100000000003,170.5869365225391
27.440033333333336,170.26339691189827
27.4721,170.63244729605867
27.504033333333336,170.46556473829202
27.5361,170.4929709465792
27.568033333333336,170.56400742115028
27.60023333333334,170.9179104477612
27.6321,170.82433668801465
27.664,170.8036866359447
27.696033333333336,170.58719851576996
27.728166666666667,170.8219800181653
27.760033333333336,171.36487716105552
27.807966666666665,171.03174603174605
27.8399,170.83085501858736
27.872133333333334,170.558476881233
27.904200000000003,171.02131603336423
27.936033333333334,170.76929982046678
27.96806666666667,170.62453874538744
28.00016666666667,170.63729128014842
28.032200000000003,170.94574368568757
28.0642,170.7309833024119
28.0961,170.6697163769442
28.144000000000002,170.3851921274602
28.176033333333336,170.39550140581068
28.208000000000002,170.4967741935484
28.240033333333336,170.79945054945054
28.271933333333333,170.2728127939793
28.304000000000002,170.7816513761468
28.336066666666667,170.69479353680433
28.368166666666667,170.81363636363636
28.400166666666667,170.55159817351597
28.432033333333333,170.77767527675277
28.464033333333333,170.48636363636365
28.512033333333335,170.73023255813953
28.5441,170.6789667896679
28.57616666666667,170.94501397949674
28.608033333333335,170.69953488372093
28.640033333333335,170.49534450651768
28.6722,170.38334858188472
28.70396666666667,170.69408502772643
28.73606666666667,170.43457943925233
28.768133333333335,170.1778398510242
28.800433333333334,170.3468634686347
28.83216666666667,169.89114391143912
28.880066666666668,170.40942698706098
28.911966666666668,169.99632352941177
28.944000000000003,170.29710144927537
28.976000000000003,169.51624883936861
29.008133333333333,169.71680594243267
29.040066666666668,169.63661453541857
29.072033333333334,169.9286376274328
29.10396666666667,169.66233766233768
29.136033333333334,169.99360730593608
29.168100000000003,169.7291280148423
29.216,169.74725274725276
29.247966666666667,169.8170955882353
29.279966666666667,170.04129263913825
29.312133333333335,169.66697848456502
29.344133333333335,169.57792207792207
29.376066666666667,170.1710280373832
29.408033333333336,169.58614232209737
29.440166666666666,169.96100278551532
29.472,169.7029053420806
29.504,170.0
29.535966666666667,169.8953068592058
29.584000000000003,170.00181983621474
29.61596666666667,170.09323583180986
29.64816666666667,169.81232750689972
29.68006666666667,169.5399628252788
29.71206666666667,170.09701492537314
29.74406666666667,170.12781954887217
29.776200000000003,169.97064220183486
29.80806666666667,169.87172284644194
29.84006666666667,170.22648401826484
29.872133333333334,170.10424354243543
29.904200000000003,170.4819944598338
29.952,170.0821791320406
29.983966666666667,169.9601113172542
30.016066666666667,170.0369685767098
30.048066666666667,169.80519480519482
30.0802,169.6588566073102
30.112166666666667,169.8864668483197
30.143966666666667,170.73586654309545
30.176066666666667,170.07156133828997
30.2082,170.66543438077633
30.2401,170.4578651685393
30.28806666666667,170.13828786453433
30.32,170.4036087369421
30.35196666666667,170.34335154826957
30.384033333333335,170.52974504249292
30.4161,170.57790368271955
30.44806666666667,170.1362781954887
30.480033333333335,170.48872180451127
30.51206666666667,170.54166666666666
30.54416666666667,170.66542056074766
30.57606666666667,170.76163873370578
30.608033333333335,170.61850802644005
30.655966666666668,170.64095238095237
30.687966666666668,170.51029962546818
30.720166666666668,170.94569288389513
30.752066666666668,170.82165605095543
30.784000000000002,170.95040577096484
30.815933333333334,170.84701492537314
30.848033333333333,171.17222222222222
30.880166666666668,170.96880733944954
30.912100000000002,170.79617834394904
30.944000000000003,170.9341983317887
30.976133333333333,171.04945054945054
31.023933333333336,170.82074613284806
31.05606666666667,170.74084249084248
31.0881,170.77828886844526
31.120033333333335,171.07149576669804
31.152033333333335,170.5572093023256
31.184166666666673,170.08595194085026
31.216,169.87361623616235
31.248,170.80263157894737
31.279933333333336,170.15168539325842
31.3121,170.2767123287671
31.36006666666667,170.27106227106228
31.392033333333334,170.50786308973173
31.42396666666667,170.59144676979074
31.456000000000003,170.64102564102564
31.488166666666668,170.6238361266294
31.520033333333334,170.05223880597015
31.55206666666667,170.60767790262173
31.584100000000003,170.52096924510718
31.616133333333334,170.64338919925513
31.64806666666667,170.35256410256412
31.67996666666667,170.56786703601108
31.728033333333336,170.84898710865562
31.759966666666667,170.43427017225747
31.791933333333336,170.17367458866545
31.8241,170.23915050784856
31.856066666666667,170.48550046772684
31.888033333333336,170.59835315645014
31.920033333333336,170.84537968892957
31.952166666666667,170.86334256694366
31.984033333333336,171.00182982616653
32.016,170.97003745318352
32.063900000000004,170.58579335793357
32.09583333333333,170.58986175115209
32.127966666666666,170.69529085872577
32.1602,170.7276084949215
32.19193333333334,170.85178408051235
32.2241,170.7940108892922
32.2562,170.53620531622366
32.28816666666667,170.6533212010919
32.319966666666666,170.8125
32.352066666666666,171.02911737943586
32.3842,171.109375
32.43196666666667,170.95372050816695
32.4641,171.2269058295964
32.49596666666667,171.6891143911439
32.52793333333334,171.70462962962964
32.55993333333333,170.99724770642203
32.59206666666667,171.38468634686348
32.6241,170.91658943466172
32.656,170.8721251149954
32.68803333333334,170.99632352941177
32.72016666666667,170.92307692307693
32.75206666666667,171.3675925925926
32.80003333333333,170.76138433515482
32.832,170.79981801637854
32.86403333333333,170.77767527675277
32.896100000000004,170.81232750689972
32.9281,170.6972972972973
32.96,170.5989110707804
32.992000000000004,170.97486033519553
33.024166666666666,170.51743119266055
33.0561,170.4972627737226
33.08806666666667,170.50635208711432
33.136,170.67970882620565
33.16806666666667,170.03574788334902
33.2002,170.4289667896679
33.23223333333333,170.28571428571428
33.264,170.09380692167576
33.296,170.10403587443946
33.328066666666665,169.76194852941177
33.36023333333333,170.21790235081374
33.39203333333334,170.27354260089686
33.42416666666667,170.21165919282512
33.4561,170.35688405797103
33.50403333333333,169.80671506352087
33.536100000000005,170.0036396724295
33.568000000000005,170.06805807622504
33.600033333333336,170.2662397072278
33.63206666666667,170.08037383177572
33.66413333333333,170.09574468085106
33.69616666666667,170.0832570905764
33.728100000000005,170.2047970479705
33.76006666666667,170.05829596412556
33.792033333333336,170.2081447963801
33.823966666666664,170.08826205641492
33.8721,170.1030741410488
33.904,170.20491803278688
33.9361,170.24658780709737
33.968066666666665,170.1847533632287
34.00026666666667,170.37030247479376
34.03203333333334,170.49129239230064
34.064033333333334,170.27354260089686
34.096066666666665,170.35902085222122
34.128166666666665,170.30782918149464
34.1601,170.2948717948718
34.20806666666667,170.2967441860465
34.23983333333334,170.6651291512915
34.27186666666667,170.82688766114182
34.30416666666667,170.64344637946837
34.33606666666667,170.6669708029197
34.36806666666667,170.61559633027525
34.40023333333333,170.6832740213523
34.43213333333333,170.52859778597787
34.4642,170.0658844765343
34.49603333333334,170.36503623188406
34.5281,170.67348837209303
34.575966666666666,170.6522140221402
34.60796666666667,170.60786106032907
34.6402,170.82933579335793
34.67196666666667,170.3308957952468
34.70393333333333,170.6037037037037
34.73603333333333,170.72878228782287
34.7682,170.7896200185357
34.80023333333334,170.43587443946188
34.832033333333335,170.7386046511628
34.86403333333333,170.67818181818183
34.89613333333334,171.30238970588235
34.94403333333334,170.63013698630135
34.97606666666667,170.84784601283226
35.008,171.0613553113553
35.0399,170.89425706472196
35.07213333333333,170.93836246550137
35.10393333333334,170.83859332732192
35.1361,170.42529789184235
35.168033333333334,169.65959409594095
35.2004,169.96200185356813
35.23213333333334,169.39154411764704
35.28013333333333,169.50316169828363
35.31196666666667,169.85041551246536
35.34396666666667,169.65605095541403
35.37606666666667,169.86980609418282
35.40820000000001,169.95492180312786
35.44003333333333,170.2
35.472100000000005,170.21527138914442
35.504000000000005,170.4918181818182
35.53606666666667,170.69405099150143
35.5683,170.9047619047619
35.60013333333333,170.9645852749301
35.64796666666667,170.64909090909092
35.680033333333334,170.72802197802199
35.71216666666667,170.9245630174793
35.7441,171.15441176470588
35.77603333333334,170.80630213160333
35.808033333333334,171.1238532110092
35.8402,170.96875
35.87206666666667,171.39022140221402
35.90403333333334,171.19188191881918
35.936,171.25302325581396
35.96803333333334,170.9733455882353
36.01603333333333,170.81371640407787
36.04806666666667,170.8943533697632
36.08006666666667,170.94485294117646
36.112033333333336,170.6534926470588
36.14403333333333,171.02976744186049
36.17613333333333,170.86162361623616
36.20803333333333,171.05524861878453
36.24013333333333,170.89550870760772
36.27206666666667,171.18399264029438
36.30413333333333,171.01368613138686
36.352000000000004,171.17295308187673
36.383900000000004,171.18951241950322
36.415866666666666,171.2817932296432
36.448033333333335,171.37523105360444
36.48016666666667,171.37385740402195
36.51213333333334,171.26992753623188
36.54403333333334,171.3089430894309
36.57613333333334,171.2338489535942
36.608200000000004,171.05368516833485
36.640100000000004,171.19290263876252
36.6721,171.10947562097516
36.72,171.03751143641355
36.7519,171.05540166204986
36.784,170.4610507246377
36.8161,170.58393501805054
36.84813333333334,170.89889705882354
36.88006666666667,170.9021043000915
36.91213333333334,171.0625
36.94413333333333,170.88694852941177
36.97603333333333,170.99545040946316
37.00803333333334,171.0312779267203
37.04006666666667,170.786169244768
37.08796666666667,170.81985294117646
37.120066666666666,170.90627843494087
37.152033333333335,170.90263876251137
37.18403333333333,171.13699906803353
37.216,170.70064874884153
37.248066666666666,171.08363970588235
37.280366666666666,170.98609823911028
37.3121,170.75347544022245
37.344033333333336,170.9108280254777
37.37623333333333,171.03952205882354
37.424033333333334,170.78676470588235
37.45596666666667,171.03952205882354
37.488033333333334,170.85753676470588
37.51996666666667,170.90268767377202
37.552033333333334,171.16360294117646
37.58416666666667,171.2360594795539
37.61613333333334,171.41990521327014
37.64803333333334,171.68566176470588
37.679966666666665,171.5805277525023
37.7124,171.8035217794254
37.74406666666667,171.66788990825688
37.79213333333333,171.5719591457753
37.824000000000005,171.22660550458716
37.85606666666667,171.13796296296297
37.88816666666667,171.2259835315645
37.92006666666667,171.53889409559514
37.9521,171.65229357798165
37.984033333333336,171.4715073529412
38.01616666666667,171.540491355778
38.0482,171.46047794117646
38.08006666666667,171.40202391904324
38.1119,171.42830882352942
38.16003333333334,171.57645968489342
38.19193333333334,170.967562557924
38.22416666666667,171.78321033210332
38.25613333333334,171.05077062556663
38.2882,171.3172804532578
38.320033333333335,171.45181818181817
38.352133333333335,171.4692942254812
38.384033333333335,171.0154686078253
38.41603333333334,171.15684496826836
38.44813333333334,171.15874439461882
38.4959,171.15315315315317
38.528,170.95882891125345
38.56,170.82513661202185
38.59196666666667,171.48090909090908
38.62403333333334,170.8240223463687
38.65613333333334,170.8312159709619
38.68806666666667,171.1450589301904
38.72006666666667,171.31210191082803
38.75206666666667,170.9138090824838
38.78416666666667,171.65782250686186
38.81616666666667,171.4019784172662
38.864066666666666,171.43064369900273
38.895900000000005,171.45216606498195
38.927933333333335,171.77310155535224
38.95993333333333,171.1912313432836
38.99216666666667,170.72659176029964
39.024033333333335,170.70053956834533
39.05603333333333,171.12992831541217
39.08806666666667,169.7217553688142
39.12023333333334,169.35203619909504
39.152100000000004,169.0388888888889
39.184066666666666,168.45504587155963
39.232033333333334,168.3757904245709
39.264,168.19742883379246
39.29616666666667,168.20677035681612
39.32816666666667,168.3893967093236
39.360033333333334,168.05473098330242
39.392,168.17657822506862
39.42443333333333,168.2511542012927
39.45606666666667,168.2862488306829
39.48813333333334,168.43450184501845
39.52006666666667,168.0
39.56796666666667,168.44444444444446
39.6,168.03874538745387
39.6321,168.31655992680697
39.664033333333336,167.85870556061988
39.69603333333333,168.16681776971896
39.72806666666667,167.8528336380256
39.760200000000005,168.12685185185185
39.79196666666667,167.8121546961326
39.823966666666664,168.0940959409594
39.85606666666667,167.65682656826567
39.888200000000005,167.47992530345473
39.9361,168.01646843549864
39.968,168.18307267709292
40.00026666666667,167.8166819431714
40.032066666666665,167.89690721649484
40.064166666666665,167.5893358278765
40.09616666666667,167.984375
40.128033333333335,167.50455373406194
40.16016666666667,167.6186440677966
40.19213333333334,167.4990774907749
40.22396666666667,167.41658986175116
40.272,167.49457504520794
40.30396666666667,167.51928251121078
40.336,167.61917808219178
40.368033333333344,167.44665461121156
40.4003,167.46585594013098
40.43203333333334,167.75454545454545
40.46403333333333,167.66636197440585
40.49606666666667,167.95475530932595
40.52813333333334,168.15096065873743
40.56003333333334,167.8397435897436
40.59203333333333,167.47497725204732
40.639900000000004,167.62568306010928
40.671866666666666,167.60861594867094
40.704033333333335,167.7047970479705
40.73603333333334,167.47152194211017
40.768033333333335,167.67250922509226
40.80016666666667,167.38606403013182
40.83213333333334,167.59537037037038
40.86416666666667,167.4852521408183
40.89606666666667,167.7535145267104
40.9281,167.60906515580737
40.960166666666666,167.68
41.00796666666667,167.52451433857541
41.040033333333334,167.69869402985074
41.0719,167.53874538745387
41.10396666666667,167.23400365630712
41.136166666666675,167.87202925045705
41.16816666666667,167.6531365313653
41.20023333333334,167.46516007532955
41.232033333333334,167.85080264400378
41.26406666666667,167.7731092436975
41.29623333333333,167.59925093632958
41.344100000000005,167.57561869844182
41.3761,167.5891544117647
41.408,167.6441947565543
41.44003333333333,167.5983455882353
41.47213333333333,167.90815370196813
41.50406666666667,167.8243626062323
41.53596666666667,168.081876724931
41.56806666666667,168.08279668813248
41.60046666666667,168.066237350506
41.632200000000005,167.27876520112255
41.66406666666667,167.3687615526802
41.711933333333334,167.2820276497696
41.743933333333345,167.4981684981685
41.77603333333334,167.0388170055453
41.80813333333334,167.30597014925374
41.840066666666665,167.57319391634982
41.872033333333334,167.48151658767773
41.904,167.41505968778696
41.93613333333334,167.4058769513315
41.9679,168.12742382271466
42.0003,167.54029304029305
42.03203333333334,167.57502329916122
42.07996666666667,167.4040590405904
42.112100000000005,167.80258302583024
42.144133333333336,167.93987049028678
42.17606666666667,167.61646398503274
42.208000000000006,167.03219871205152
42.24016666666667,167.24657534246575
42.27203333333333,167.04000000000002
42.30406666666667,167.77746999076638
42.3361,167.77798507462686
42.36816666666667,167.4698795180723
42.4161,167.36605504587158
42.44806666666666,167.61323392357875
42.47996666666667,167.5234962406015
42.512033333333335,167.48852157943068
42.544000000000004,167.6776007497657
42.57613333333334,167.63055555555556
42.6081,168.2365491651206
42.640033333333335,168.02513966480447
42.6721,168.0771375464684
42.70413333333334,168.05529522024366
42.736066666666666,167.62278244631187
42.78386666666667,168.33394664213432
42.815933333333334,168.2352398523985
42.84806666666667,168.03460837887067
42.88003333333334,167.96762257169289
42.91203333333333,168.0347349177331
42.943933333333334,168.05004549590538
42.97603333333333,167.8739800543971
43.00813333333333,168.04280510018214
43.04,167.8599257884972
43.071933333333334,168.02976744186049
43.10406666666667,168.07162790697674
43.15193333333333,168.14039855072463
43.183933333333336,167.78044280442805
43.216166666666666,167.37294332723948
43.2479,167.8636779505947
43.280199999999994,167.31696014828546
43.31203333333333,167.7527573529412
43.344199999999994,167.36856875584658
43.37606666666667,167.54311926605504
43.40806666666667,167.4611059044049
43.440133333333335,167.89332096474953
43.488,167.6069469835466
43.520133333333334,167.78333333333333
43.552033333333334,168.1634349030471
43.584,167.69072164948454
43.615966666666665,167.6678966789668
43.648133333333334,167.82274881516588
43.680033333333334,167.93721144967682
43.71203333333334,167.37592592592594
43.74406666666667,167.77777777777777
43.7762,167.84302862419204
43.808,167.83838383838383
43.85616666666667,167.70335820895522
43.88803333333333,167.77008310249306
43.91996666666667,167.69869402985074
43.952000000000005,167.76797088262057
43.98406666666667,167.7282003710575
44.01596666666667,167.66358595194086
44.04793333333333,167.94526901669758
44.07996666666667,167.9317773788151
44.112,167.77920883164674
44.14396666666667,168.00371057513914
44.176033333333336,168.0230840258541
44.224000000000004,167.6776007497657
44.25593333333334,167.35551504102096
44.288133333333334,167.89613970588235
44.3202,167.55637707948244
44.35203333333334,167.57417582417582
44.384033333333335,167.71696344892223
44.41616666666667,167.7429111531191
44.448166666666665,167.71161048689137
44.480066666666666,167.57235621521335
44.512033333333335,167.49310027598895
44.5599,167.19795539033456
44.59186666666667,167.61645101663586
44.624100000000006,167.5191605839416
44.65606666666667,167.42896425297891
44.6881,167.5167910447761
44.72003333333333,166.9572887650882
44.75203333333334,167.60449859418932
44.78403333333333,167.5683520599251
44.816,167.4365004703669
44.84803333333333,167.279091769158
44.8802,167.36925960637302
44.928066666666666,167.44018264840182
44.959966666666666,167.256175663312
44.9919,167.34794776119404
45.024,167.28136531365314
45.05616666666667,167.791280148423
45.088,167.5752539242844
45.120066666666666,167.38339552238804
45.15206666666667,167.6113172541744
45.184133333333335,167.31622364802934
45.21613333333334,166.77260018639328
45.247933333333336,166.9245810055866
45.29586666666667,166.9144434222631
45.32783333333334,166.79335793357933
45.35993333333334,166.94423440453687
45.39196666666667,167.01476014760146
45.42393333333334,167.01672862453532
45.45596666666667,167.32527881040892
45.48796666666667,167.34944237918214
45.52003333333334,166.9760147601476
45.55193333333334,167.13475836431226
45.58396666666667,166.76794035414724
45.631933333333336,166.92158671586716
45.663900000000005,167.10998151571164
45.69616666666667,167.09141791044775
45.72813333333333,166.84845650140318
45.76003333333333,167.30655586334257
45.79196666666667,167.2513914656772
45.82406666666667,167.21514312096028
45.856100000000005,166.87903970452447
45.88806666666667,166.4513193812557
45.92006666666667,166.81793229643185
45.95216666666667,167.205223880597
46.0,167.37166513339466
46.032133333333334,167.1417910447761
46.064,167.28467153284672
46.096066666666665,167.4102564102564
46.128,167.4647758462946
46.160133333333334,167.28846153846155
46.191966666666666,167.44393382352942
46.22403333333334,166.54452690166977
46.25593333333334,167.7077922077922
46.2882,167.58049678012878
46.320100000000004,167.83270676691728
46.368,167.66204986149583
46.400133333333336,167.83471074380165
46.43206666666667,167.92685185185186
46.464133333333336,168.02913533834587
46.49616666666667,167.74323062558358
46.52806666666667,167.63305322128852
46.56006666666667,167.88982259570497
46.59206666666667,167.99159663865547
46.62403333333334,168.1490740740741
46.65603333333333,167.591985428051
46.704,167.6079335793358
46.736000000000004,167.54656632173095
46.76806666666667,168.1464552238806
46.80023333333334,168.17174515235456
46.832033333333335,168.07310215557638
46.863933333333335,168.38311688311688
46.896033333333335,168.3873045078197
46.92813333333333,168.32374768089053
46.96013333333334,168.59595959595958
46.991933333333336,168.4404432132964
47.02396666666667,168.06255749770008
47.07183333333334,167.99077490774908
47.104033333333334,167.4889298892989
47.13603333333334,167.49727272727273
47.168033333333334,167.762348555452
47.20023333333334,167.6609090909091
47.2321,166.91019644527597
47.26416666666667,166.87314814814815
47.2961,167.29185727355903
47.32806666666667,167.20460829493086
47.36016666666667,167.36745886654478
47.39203333333334,167.4872029250457
47.4401,167.58579335793357
47.47186666666667,167.61939615736506
47.50403333333333,167.80327868852459
47.536,167.36108597285067
47.56816666666667,167.46802594995367
47.600233333333335,167.62397072278134
47.63206666666667,167.60292772186642
47.664,167.7490974729242
47.696200000000005,167.5201465201465
47.728100000000005,167.89620938628158
47.7761,167.87635379061373
47.80806666666667,167.8653321201092
47.84006666666667,168.10593607305935
47.87216666666667,167.51782363977486
47.90403333333334,167.68425925925928
47.936,167.94354838709677
47.96796666666667,168.21480144404333
48.0002,167.32934682612697
48.0322,168.03429602888087
48.064033333333334,167.86300093196644
48.09606666666667,167.83409298085687
48.14396666666667,168.04432132963987
48.176,167.66297322253
48.208133333333336,167.02795311091072
48.24,167.07921714818266
48.27206666666667,166.8601851851852
48.304033333333344,167.42502299908003
48.336133333333336,167.42449355432782
48.36796666666667,167.41704857928505
48.4001,167.21296296296296
48.43206666666667,167.00731930466605
48.480066666666666,167.32846715328466
48.512100000000004,167.49584487534625
48.544133333333335,167.5216191352346
48.576033333333335,167.17630597014926
48.60803333333334,167.38311688311688
48.64013333333334,167.42870285188593
48.67196666666667,167.13694852941177
48.704100000000004,167.5854108956602
48.736066666666666,167.45630174793007
48.7682,167.50185528756958
48.800200000000004,167.793321299639
48.8481,167.3468634686347
48.88,167.15455381784727
48.91196666666667,167.29639889196676
48.944,167.38454461821527
48.97616666666667,166.70411985018725
49.00813333333333,166.92857142857144
49.04016666666667,167.08608058608058
49.07206666666667,167.29787234042553
49.104200000000006,167.31539888682747
49.13603333333334,167.2511542012927
49.168033333333334,166.82390510948903
49.21593333333333,166.93947606142729
49.24786666666667,166.91541353383457
49.28013333333334,166.73512476007676
49.312133333333335,166.82781456953643
49.344,167.1898148148148
49.3761,167.2714552238806
49.408166666666666,167.3189087488241
49.44006666666667,167.3967803030303
49.47206666666667,167.1599625818522
49.50406666666667,167.1693171188026
49.552,166.84151992585728
49.583933333333334,166.9812382739212
49.6161,167.30092592592592
49.647933333333334,167.09074074074076
49.67993333333333,166.8683473389356
49.7121,167.05560704355887
49.74416666666667,167.30797433547204
49.77606666666667,167.3712686567164
49.80806666666667,167.44309701492537
49.8401,167.17948717948718
49.87216666666667,167.1881918819188
49.920100000000005,167.2675799086758
49.952000000000005,167.48943985307622
49.984033333333336,167.6078971533517
50.01606666666667,167.475
50.048100000000005,167.55827067669173
50.080133333333336,167.00840336134453
50.111900000000006,167.50833333333333
50.144133333333336,167.40379146919432
50.17616666666667,167.31063432835822
50.2081,167.38664158043275
50.24,167.57899628252787
50.28796666666667,167.89289012003692
50.319966666666666,167.3748854262145
50.35203333333334,167.6204651162791
50.38413333333334,167.48048327137545
50.416000000000004,167.6084949215143
50.448033333333335,168.06851851851852
50.480066666666666,167.82465753424657
50.512033333333335,167.7849162011173
50.5439,167.76688251618873
50.576,167.71600370027753
50.62396666666667,168.33208606173994
50.65596666666667,168.31588613406794
50.688100000000006,168.02935779816514
50.72003333333333,167.75706214689265
50.75203333333334,167.92211538461538
50.78403333333333,167.9764595103578
50.81616666666667,167.94915254237287
50.84813333333334,167.98986175115206
50.88003333333334,168.04477611940297
50.91203333333333,168.02705223880596
50.94406666666667,167.61178671655753
50.9919,167.53413284132841
51.02406666666667,167.24723247232473
51.05603333333334,167.34885844748857
51.08793333333334,167.55635707844905
51.120066666666666,167.30249768732656
51.15213333333334,167.63475836431226
51.184000000000005,167.56341911764704
51.216033333333336,167.5334590009425
51.24803333333334,167.3940795559667
51.28013333333334,167.27547169811322
51.3119,167.66823308270676
51.36,167.84093023255815
51.3919,167.41828254847644
51.424,167.71240601503757
51.45616666666667,167.5785123966942
51.488033333333334,167.3932898415657
51.520133333333334,168.15462962962962
51.552033333333334,168.07685185185187
51.5841,167.8228310502283
51.6161,167.56505576208178
51.64803333333334,167.68890977443607
51.69606666666667,167.76752767527674
51.72793333333333,168.14681440443212
51.759933333333336,168.37361623616235
51.79216666666667,168.1679104477612
51.823966666666664,168.27401129943502
51.85606666666667,168.03301886792454
51.8881,167.94814814814816
51.92016666666667,168.01833180568286
51.95203333333333,167.42750233863424
51.984033333333336,167.51338873499537
52.01603333333333,167.54296160877513
52.064,167.34511627906977
52.09606666666667,167.58703703703705
52.12813333333334,167.60925925925926
52.16003333333334,167.690587138863
52.19206666666667,167.86100746268656
52.224133333333334,167.8425925925926
52.256033333333335,167.53674418604652
52.28803333333334,167.32686980609418
52.320033333333335,167.23906976744186
52.3522,167.49954337899544
52.38416666666667,167.70092592592593
52.43206666666667,167.56734317343174
52.46396666666667,167.77518656716418
52.49603333333334,167.89204025617568
52.52806666666667,167.66422689844467
52.5602,167.66970802919707
52.59193333333334,167.58488805970148
52.624100000000006,167.73758200562324
52.656000000000006,167.69505494505495
52.688233333333336,167.69907407407408
52.72013333333334,167.61826484018263
52.767966666666666,167.35304990757857
52.80016666666667,167.63423760523855
52.832033333333335,167.70277777777778
52.86416666666667,167.62790697674419
52.896166666666666,167.55368814192343
52.92803333333334,167.54724041159963
52.96006666666667,167.79907407407407
52.99216666666667,167.58488805970148
53.024033333333335,167.53488372093025
53.0561,167.4447488584475
53.08793333333334,167.30499075785582
53.13596666666667,167.69776119402985
53.168033333333334,167.54645814167432
53.2002,167.3062730627306
53.2321,167.48981481481482
53.264,168.2198712051518
53.296033333333334,167.83318056828597
53.32816666666667,167.59328358208955
53.36006666666667,167.8638888888889
53.3921,168.07870370370372
53.424033333333334,167.86294896030248
53.45616666666667,167.6080586080586
53.50403333333334,167.89652014652015
53.53586666666667,167.65750915750917
53.5681,167.66941391941393
53.6002,167.77289377289378
53.63216666666667,167.72802197802199
53.66413333333334,167.76373626373626
53.69606666666667,167.89031078610603
53.72806666666667,167.234375
53.76016666666667,167.97771587743733
53.792100000000005,168.03461178671657
53.8401,167.71837488457987
53.872033333333334,167.8409090909091
53.904,167.693234476367
53.93593333333334,168.08864265927977
53.9681,167.8890977443609
54.0002,167.94459833795014
54.032,167.77344475394614
54.064033333333334,167.4395393474088
54.096133333333334,167.56851851851852
54.128033333333335,167.70092592592593
54.160133333333334,167.93240740740742
54.20803333333333,167.9151291512915
54.24,167.84372093023256
54.27216666666667,167.96240601503757
54.30393333333333,167.61581395348838
54.3359,167.5419776119403
54.36796666666667,167.75141242937852
54.4005,168.1431226765799
54.432100000000005,167.97086466165413
54.46403333333333,167.91690009337069
54.49613333333333,167.76279069767443
54.52816666666667,167.63837638376384
54.575966666666666,167.5216191352346
54.608066666666666,167.7470319634703
54.640033333333335,167.9642857142857
54.67203333333334,167.92723880597015
54.704,168.05990783410138
54.7361,168.0
54.768100000000004,167.99351851851853
54.80003333333334,167.68211306765525
54.83233333333334,167.91211840888067
54.864200000000004,168.10433979686056
54.9121,168.09972299168973
54.944100000000006,168.12301957129543
54.97596666666667,167.786301369863
55.00803333333334,167.7490774907749
55.040200000000006,167.69915651358951
55.07206666666667,167.81181818181818
55.10406666666667,167.81724461105904
55.13606666666667,167.6453382084095
55.16816666666667,167.42032967032966
55.20013333333333,167.37087912087912
55.23193333333334,167.4179104477612
55.27996666666667,167.67978042086003
55.31196666666667,167.52985074626866
55.344033333333336,168.03673094582186
55.376133333333335,167.9667590027701
55.408,167.70224719101122
55.44003333333334,167.91813953488372
55.47206666666667,168.31370745170193
55.50416666666667,168.15809167446213
55.536100000000005,168.25375939849624
55.56803333333334,168.19241443108234
55.600233333333335,167.71442125237192
55.6479,168.30027297543222
55.68,168.35223048327137
55.71216666666667,167.80740740740742
55.74406666666667,168.06716417910448
55.77606666666667,167.52238805970148
55.80816666666667,167.78055555555557
55.84006666666667,167.9954044117647
55.8721,167.89655172413794
55.90403333333334,167.85647716682197
55.93616666666667,167.5
55.98396666666667,167.62781954887217
56.0161,167.8493919550982
56.04796666666667,167.5207756232687
56.0799,167.27592592592592
56.112033333333336,167.51315789473682
56.1441,167.50695088044486
56.176033333333336,167.25279850746267
56.20803333333333,167.609375
56.24013333333333,167.80801491146318
56.272133333333336,166.7131221719457
56.30406666666667,166.72541743970316
56.35203333333334,166.65685372585097
56.383966666666666,166.7754911131899
56.41606666666667,166.8762603116407
56.44813333333334,166.83333333333334
56.48016666666667,166.71921641791045
56.51193333333334,166.7922932330827
56.5443,166.69758812615956
56.57616666666667,166.81716417910448
56.608066666666666,166.77518656716418
56.640100000000004,167.14127423822714
56.68803333333334,166.7471264367816
56.71996666666667,167.08699719363892
56.75196666666667,166.77725563909775
56.78413333333334,166.69444444444446
56.81606666666667,166.77777777777777
56.8481,166.76691729323306
56.88003333333334,167.0630797773655
56.912200000000006,167.09586466165413
56.943933333333334,166.70770676691728
56.97613333333334,166.5257731958763
57.00803333333334,166.35180055401662
57.05603333333334,167.0888888888889
57.08806666666667,167.34680451127818
57.1199,166.82369402985074
57.15196666666667,167.26194852941177
57.184066666666666,166.89285714285714
57.21613333333334,166.74405850091406
57.248133333333335,166.80578898225957
57.280033333333336,166.6818181818182
57.31206666666667,167.11380597014926
57.344199999999994,167.10315985130111
57.3759,167.08230842005676
57.42406666666667,167.0155535224154
57.45596666666667,167.24
57.488033333333334,167.58270676691728
57.52,167.6061739943873
57.55213333333334,167.5888187556357
57.58406666666667,167.72633552014995
57.61596666666667,167.6983546617916
57.64803333333334,167.70720299345183
57.6802,167.3146274149034
57.71203333333334,167.4977000919963
57.760000000000005,167.0846366145354
57.79196666666667,167.10743801652893
57.824200000000005,167.19575253924285
57.85616666666667,167.24093023255816
57.88803333333333,167.07899628252787
57.920033333333336,167.65388213283444
57.9521,167.1207224334601
57.9842,167.55597014925374
58.01616666666667,167.6212962962963
58.04806666666667,167.3666978484565
58.08003333333333,167.62862488306828
58.12793333333334,167.23634651600753
58.15996666666667,167.5353440150801
58.19196666666667,167.66378482228626
58.2239,167.54347826086956
58.2561,167.9280303030303
58.288000000000004,167.32857142857142
58.3202,167.3097014925373
58.35203333333334,167.23694029850745
58.38406666666667,167.1632462686567
58.41606666666667,167.3148148148148
58.4482,167.2703703703704
58.496100000000006,167.30819366852887
58.5281,166.8045112781955
58.560100000000006,166.86287313432837
58.592000000000006,166.8939534883721
58.62416666666667,167.13189897100094
58.65606666666667,167.32740879326474
58.688100000000006,167.19298245614036
58.72006666666667,166.89351851851853
58.75216666666667,167.12962962962965
58.78416666666667,166.97899543378995
58.83206666666667,167.2734962406015
58.86396666666667,167.34048507462686
58.895966666666666,167.43097014925374
58.9281,167.2929104477612
58.960233333333335,167.30223880597015
58.99196666666667,167.65298507462686
59.024033333333335,167.72886029411765
59.056066666666666,167.4780534351145
59.08806666666667,167.16111111111113
59.120066666666666,167.14670380687093
59.15206666666667,167.1919850885368
59.20006666666667,167.25724976613657
59.23196666666667,166.57381615598885
59.264100000000006,167.0
59.29613333333334,166.89897100093546
59.32806666666667,167.04981203007517
59.360033333333334,166.51033834586465
59.392100000000006,166.35914179104478
59.42406666666667,166.66323666978485
59.45606666666667,166.6700838769804
59.48806666666667,166.5622076707203
59.52006666666667,166.64265668849393
59.568000000000005,166.52376514445479
59.600233333333335,166.87737642585552
59.63203333333334,166.64738805970148
59.664100000000005,166.65648148148148
59.69603333333334,166.7511693171188
59.72816666666667,167.0037558685446
59.7601,167.0540037243948
59.79196666666667,167.00904977375566
59.82406666666667,167.2049405306496
59.85616666666667,167.14895549500454
59.904,167.08425925925926
59.93586666666667,167.15833333333333
59.967933333333335,167.22926374650513
60.00013333333334,166.97297297297297
60.0321,166.85219831618335
60.06413333333334,167.11204481792717
60.09606666666667,167.01824817518246
60.128,166.98514391829156
60.160133333333334,167.09595484477893
60.19196666666667,166.78104265402845
60.22403333333334,166.69167429094236
60.272000000000006,166.6214219759926
60.30393333333333,166.61136999068032
60.33603333333333,166.62114125350794
60.368,166.9785647716682
60.40016666666667,167.01585820895522
60.432100000000005,167.19029850746267
60.46396666666667,167.30568499534016
60.49616666666667,167.4967012252592
60.5281,167.30640668523677
60.56006666666667,167.343367826905
60.59196666666667,167.1713747645951
60.639966666666666,167.3388888888889
60.6721,167.53695042095416
60.704,167.53715898400753
60.73606666666667,167.26399253731344
60.76806666666667,167.03544776119404
60.8001,167.0243217960711
60.832233333333335,167.3797942001871
60.864066666666666,167.1095890410959
60.89606666666667,167.07555970149252
60.928200000000004,167.22191272051995
60.97603333333333,167.04757462686567
61.008100000000006,166.8209647495362
61.03996666666667,166.81508739650414
61.072,166.84360625574976
61.104000000000006,166.6847521047708
61.13606666666667,167.23333333333335
61.168000000000006,167.47042253521127
61.20013333333333,167.8032319391635
61.2319,167.90445269016698
61.26416666666667,167.731843575419
61.29606666666667,167.72579098753596
61.344100000000005,167.864406779661
61.375933333333336,167.81273062730628
61.408,167.83883129123467
61.44006666666667,167.75328330206378
61.47206666666667,167.63929889298893
61.50403333333334,167.85269121813033
61.536100000000005,167.91152073732718
61.568133333333336,167.8003857280617
61.600300000000004,167.67970204841714
61.63203333333334,167.60922787193974
61.66393333333334,167.52448210922788
61.71196666666667,167.84608294930877
61.744,167.8551532033426
61.77616666666667,168.24788732394364
61.808033333333334,168.1976534296029
61.84006666666667,167.8022181146026
61.87206666666667,167.46332404828226
61.904133333333334,167.33302151543498
61.936033333333334,167.43918291550602
61.968133333333334,167.74742750233864
62.0001,167.93488372093023
62.04786666666667,168.1638009049774
62.080000000000005,168.310570626754
62.112033333333336,168.37988826815644
62.14403333333333,168.21763085399448
62.176033333333336,167.9307764265669
62.208133333333336,168.04532304725169
62.24006666666667,167.71428571428572
62.27203333333333,167.9037037037037
62.30396666666667,167.75580315691735
62.336133333333336,167.452935694315
62.36816666666667,167.70309653916212
62.41616666666667,167.87545454545455
62.448,167.63868613138686
62.48003333333334,167.91064981949458
62.51193333333334,167.84007352941177
62.544133333333335,167.91886964448494
62.576,167.7632805219012
62.60806666666667,168.14944649446494
62.640033333333335,167.8773841961853
62.6721,167.67511312217195
62.704,167.89235127478753
62.736000000000004,167.78913443830572
62.78393333333334,167.86307837582626
62.81596666666667,167.51649387370404
62.84813333333334,167.71639042357276
62.88006666666667,167.78637200736648
62.91203333333333,168.146110056926
62.944,168.21583411875588
62.97613333333334,167.8936170212766
63.008100000000006,167.65054744525546
63.040033333333334,167.2239776951673
63.07203333333334,166.81140754369824
63.12003333333334,167.1898148148148
63.15196666666667,167.40995475113124
63.184066666666666,167.61630036630038
63.21606666666667,167.64369900271984
63.24796666666667,167.7798165137615
63.28013333333334,167.70625566636446
63.312133333333335,166.73901098901098
63.344033333333336,167.49771689497717
63.3759,167.39908675799086
63.408,167.6451612903226
63.44016666666667,167.7601809954751
63.48806666666667,167.3318223028105
63.51996666666667,167.12271062271063
63.55206666666667,166.975387420237
63.58403333333334,166.9197812215132
63.61613333333334,166.88331814038287
63.648133333333334,167.06912442396313
63.68006666666667,166.9180790960452
63.71196666666667,166.90550458715597
63.74413333333334,167.0709736123749
63.776,167.19543378995434
63.80786666666667,167.25806451612902
63.85593333333334,167.31336405529953
63.888000000000005,166.94530537830445
63.920033333333336,166.77705223880596
63.952133333333336,166.82967032967034
63.984033333333336,166.72761194029852
64.01603333333334,167.28896991795807
64.048,166.83516483516485
64.08016666666667,166.9353327085286
64.11203333333334,167.11487758945384
