Time,Signal_1
0.0,159.83557046979865
0.03333333333333333,159.62344983089065
0.06666666666666667,159.59978189749182
0.1,159.47110141766632
0.13333333333333333,159.36056644880176
0.16666666666666669,159.29134720700986
0.2,158.84257206208426
0.23333333333333334,158.50221729490022
0.26666666666666666,158.72677595628414
0.30000000000000004,158.91356673960613
0.33333333333333337,158.90809628008753
0.3666666666666667,159.21772428884026
0.4,159.57298474945534
0.43333333333333335,159.24229074889868
0.4666666666666667,159.22210184182015
0.5,159.35737351991386
0.5333333333333333,159.05166846071043
0.5666666666666667,159.21467098166127
0.6000000000000001,159.09846827133478
0.6333333333333334,159.2011049723757
0.6666666666666667,159.41164021164022
0.7000000000000001,159.29327453142227
0.7333333333333334,159.60418963616317
0.7666666666666667,159.89496717724288
0.8,160.3131868131868
0.8316666666666667,159.6175799086758
0.8650000000000001,159.74806629834256
0.8983333333333335,159.93275488069415
0.9316666666666668,159.90055248618785
0.9650000000000001,159.83535911602212
0.9983333333333334,159.90645161290323
1.0316666666666667,159.26586433260394
1.0650000000000002,159.0433369447454
1.0983333333333334,159.0291576673866
1.1316666666666668,158.80558539205154
1.165,158.94264069264068
1.1983333333333335,159.21467098166127
1.2316666666666667,159.0448087431694
1.2650000000000001,159.18481848184817
1.2983333333333333,159.08205689277898
1.3316666666666668,159.31481481481484
1.365,159.41721132897604
1.3983333333333334,159.61378555798686
1.4316666666666669,159.67280606717225
1.465,159.6390977443609
1.4983333333333335,159.51468988030467
1.5316666666666667,159.76457645764575
1.5650000000000002,159.68443960826986
1.5983333333333334,159.68362831858406
1.6316666666666668,159.73584905660377
1.665,159.99557522123894
1.6983333333333335,160.10475161987043
1.7316666666666667,160.05680600214362
1.7650000000000001,160.10679611650485
1.7983333333333333,159.52227171492206
1.8316666666666668,159.9003359462486
1.8650000000000002,159.80638063806379
1.8983333333333334,159.55555555555554
1.9316666666666669,159.55277475516866
1.965,159.56765676567656
1.9983333333333335,159.38142076502731
2.0316666666666667,159.59518599562364
2.065,159.43846153846152
2.0983333333333336,159.34006734006735
2.131666666666667,159.7197382769902
2.165,159.815991237678
2.1983333333333337,159.68580715059588
2.231666666666667,159.7421451787649
2.265,159.81828073993472
2.2983333333333333,159.70314192849403
2.331666666666667,159.86257928118394
2.365,159.90280777537797
2.3983333333333334,159.94124047878128
2.4316666666666666,160.04570184983677
2.4650000000000003,159.91874322860238
2.4983333333333335,159.86775956284154
2.5300000000000002,159.703825136612
2.5633333333333335,159.85791757049893
2.5966666666666667,159.4573894282632
2.6300000000000003,159.43630573248407
2.6633333333333336,159.37473460721867
2.6966666666666668,159.27912087912088
2.73,159.26857749469215
2.7633333333333336,159.23186813186814
2.796666666666667,159.16721672167216
2.83,158.95227524972253
2.8633333333333337,158.87650273224043
2.896666666666667,158.8114285714286
2.93,158.86322869955157
2.9633333333333334,158.94450610432852
2.996666666666667,159.0613154960981
3.0300000000000002,159.1657142857143
3.0633333333333335,159.30742857142857
3.0966666666666667,159.0441014332966
3.1300000000000003,158.79575892857142
3.1633333333333336,159.05965292841648
3.1966666666666668,158.96544276457885
3.2300000000000004,158.91289966923927
3.2633333333333336,158.8257993384785
3.296666666666667,158.88120950323975
3.33,158.9049676025918
3.3633333333333337,158.98694232861806
3.396666666666667,158.83279742765274
3.43,158.7292340884574
3.4633333333333334,159.0649779735683
3.496666666666667,158.7960088691796
3.5300000000000002,158.631874298541
3.5633333333333335,158.50112866817153
3.5966666666666667,158.8220524017467
3.6300000000000003,158.71017699115043
3.6633333333333336,159.1632208922742
3.6966666666666668,158.98034934497815
3.7300000000000004,158.87775330396477
3.7633333333333336,159.10663764961916
3.796666666666667,159.09061135371178
3.83,158.97466960352423
3.8633333333333337,158.9966216216216
3.896666666666667,159.12777777777777
3.93,159.69775280898878
3.9633333333333334,159.51206140350877
3.996666666666667,159.35010940919037
4.03,159.27955801104974
4.0633333333333335,159.38353196099675
4.096666666666667,159.27735644637053
4.13,159.12035010940917
4.161666666666667,159.22210184182015
4.195,159.36633663366337
4.2283333333333335,159.20735785953178
4.261666666666667,159.04211663066957
4.295,159.1792656587473
4.328333333333334,159.16207276736495
4.361666666666667,159.12242686890573
4.395000000000001,158.8965896589659
4.428333333333334,158.6988888888889
4.461666666666667,158.9407894736842
4.495,158.80066815144767
4.528333333333333,158.815144766147
4.5616666666666665,159.04198895027625
4.595000000000001,159.12290502793294
4.628333333333334,159.11868131868133
4.661666666666667,159.3431693989071
4.695,159.22637362637363
4.7283333333333335,159.4795127353267
4.761666666666667,159.25305216426193
4.795,159.41073384446878
4.828333333333334,159.67787418655098
4.861666666666667,159.7150715071507
4.895000000000001,159.79207920792078
4.928333333333334,159.6017601760176
4.961666666666667,159.7984832069339
4.995,159.8248407643312
5.028333333333333,159.17117117117118
5.061666666666668,159.10927152317882
5.095000000000001,159.1456953642384
5.128333333333334,159.20735785953178
5.161666666666667,159.16612021857924
5.195,159.17358078602618
5.2283333333333335,158.8171806167401
5.261666666666667,158.93186813186813
5.295,158.70608108108107
5.328333333333334,158.5794701986755
5.361666666666667,158.74779735682822
5.395000000000001,158.7624190064795
5.428333333333334,158.71475409836066
5.461666666666667,158.84911894273128
5.495,158.64988814317672
5.528333333333333,158.91684901531727
5.561666666666668,159.0085744908896
5.595000000000001,158.84666666666666
5.628333333333334,158.84505494505495
5.661666666666667,158.91621327529924
5.695,158.82411504424778
5.7283333333333335,159.2250803858521
5.761666666666667,159.0957095709571
5.795,159.07308970099666
5.828333333333334,159.02768549280177
5.86,159.05162738496074
5.8933333333333335,158.92307692307693
5.926666666666667,159.21373200442966
5.96,159.0703125
5.993333333333334,159.13253012048193
6.026666666666667,159.0260180995475
6.0600000000000005,159.11829134720702
6.093333333333334,159.2036405005688
6.126666666666667,159.193401592719
6.16,159.17206703910614
6.193333333333333,159.05193370165748
6.2266666666666675,158.6375
6.260000000000001,158.7262443438914
6.293333333333334,158.6871508379888
6.326666666666667,158.65528634361235
6.36,158.9564744287269
6.3933333333333335,158.94015233949946
6.426666666666667,159.11643090315562
6.460000000000001,159.14907508161045
6.493333333333334,158.95429815016323
6.526666666666667,158.82104121475055
6.5600000000000005,158.85418933623504
6.593333333333334,159.10382513661202
6.626666666666667,159.19691969196919
6.66,159.28822882288227
6.693333333333333,159.23825503355704
6.7266666666666675,159.421926910299
6.760000000000001,159.3610188261351
6.793333333333334,159.26038159371495
6.826666666666667,159.08080808080808
6.86,158.90460157126824
6.8933333333333335,158.9716231555051
6.926666666666667,158.8427601809955
6.960000000000001,158.6265750286369
6.993333333333334,158.70279329608937
7.026666666666667,158.3220524017467
7.0600000000000005,158.50598476605006
7.093333333333334,158.4374319912949
7.126666666666667,158.47986942328617
7.16,158.56806002143622
7.193333333333333,158.48204570184984
7.2266666666666675,158.4646680942184
7.260000000000001,158.43675675675675
7.293333333333334,158.37458926615554
7.326666666666667,158.53872053872055
7.36,158.59708193041527
7.3933333333333335,158.60381593714928
7.426666666666667,158.5260821309656
7.460000000000001,158.60404949381328
7.491666666666667,158.73957158962796
7.525,158.89567147613764
7.558333333333334,158.94117647058823
7.591666666666667,158.97447280799113
7.625000000000001,158.850166481687
7.658333333333334,158.93832599118943
7.691666666666667,158.8322222222222
7.7250000000000005,158.454845814978
7.758333333333334,158.31556039173014
7.791666666666667,158.21916299559473
7.825,158.31277533039648
7.858333333333334,158.3013100436681
7.8916666666666675,158.17070484581498
7.925000000000001,158.1806167400881
7.958333333333334,158.2797356828194
7.991666666666667,158.03825136612022
8.025,158.22841530054646
8.058333333333334,158.19977802441733
8.091666666666667,158.36123348017622
8.125,158.28854625550662
8.158333333333333,158.36958934517205
8.191666666666666,158.2896781354051
8.225,158.39977603583426
8.258333333333335,158.51835372636262
8.291666666666668,158.6648590021692
8.325000000000001,158.7058823529412
8.358333333333334,158.77092511013217
8.391666666666667,158.7096412556054
8.425,158.89647577092512
8.458333333333334,158.75168539325844
8.491666666666667,158.94044943820225
8.525,158.7427293064877
8.558333333333334,158.61735261401557
8.591666666666667,158.44394618834082
8.625,158.65739710789765
8.658333333333333,158.4949720670391
8.691666666666666,158.1865168539326
8.725000000000001,158.10267857142856
8.758333333333335,158.4121546961326
8.791666666666668,158.35746606334843
8.825000000000001,158.2748603351955
8.858333333333334,158.2826815642458
8.891666666666667,158.50729517396186
8.925,158.32083792723265
8.958333333333334,158.21117318435753
8.991666666666667,158.1050279329609
9.025,158.13743016759776
9.058333333333334,158.3754189944134
9.091666666666667,158.6172839506173
9.125,158.55754189944133
9.158333333333333,158.61167227833897
9.190000000000001,158.57721796276013
9.223333333333334,158.61820199778026
9.256666666666668,158.82731376975167
9.290000000000003,158.73483146067417
9.323333333333334,158.850166481687
9.356666666666667,158.82463928967815
9.39,158.88568257491676
9.423333333333334,158.92563817980022
9.456666666666667,158.5791208791209
9.49,158.4945054945055
9.523333333333333,158.54273029966703
9.556666666666667,158.5982241953385
9.59,158.4022346368715
9.623333333333333,158.38159371492705
9.656666666666668,158.4022346368715
9.690000000000001,157.96380090497738
9.723333333333334,158.43826473859843
9.756666666666668,158.1952861952862
9.790000000000003,158.17094972067036
9.823333333333334,158.16723549488054
9.856666666666667,158.32764505119454
9.89,158.37656427758816
9.923333333333334,158.57430167597764
9.956666666666667,158.43473451327432
9.99,158.84017758046616
10.023333333333333,158.8145620022753
10.056666666666667,158.79619260918253
10.09,158.45575221238937
10.123333333333337,158.5593784683685
10.156666666666668,158.54143019296254
10.190000000000001,158.66969353007946
10.223333333333334,159.03591470258138
10.256666666666668,159.08305274971943
10.290000000000003,158.97120708748616
10.323333333333334,158.7813540510544
10.356666666666667,158.6881243063263
10.39,158.66814650388457
10.423333333333334,158.7524972253052
10.456666666666667,158.55382907880133
10.49,158.4703910614525
10.523333333333333,158.5476992143659
10.556666666666667,158.17130144605116
10.59,158.2269187986652
10.623333333333337,158.3818589025756
10.656666666666668,158.47592385218366
10.690000000000001,158.42393736017897
10.723333333333334,158.66223698781837
10.756666666666668,158.61105092091006
10.790000000000003,158.52786885245902
10.821666666666667,158.56035437430785
10.855,158.553591160221
10.888333333333334,158.79888268156424
10.921666666666667,158.71508379888266
10.955,158.86256983240222
10.988333333333333,158.84175824175824
11.021666666666667,159.00873362445415
11.055000000000001,158.83842794759823
11.088333333333335,158.8469162995595
11.121666666666668,158.62134831460676
11.155000000000001,158.6725860155383
11.188333333333334,158.62153163152053
11.221666666666668,158.35405105438403
11.255,158.4361820199778
11.288333333333334,158.27417519908985
11.321666666666667,158.39733629300778
11.355,158.31298557158712
11.388333333333334,158.51387347391787
11.421666666666667,158.45394006659268
11.455,158.62808988764047
11.488333333333333,158.73230088495575
11.521666666666668,159.04625550660793
11.555000000000001,158.9404630650496
11.588333333333335,158.9900442477876
11.621666666666668,159.17454954954954
11.655000000000001,159.32186459489458
11.688333333333334,159.1928651059086
11.721666666666668,159.09988776655445
11.755,159.04228571428573
11.788333333333334,158.94110985277464
11.821666666666667,158.51835372636262
11.855,158.92281105990784
11.888333333333334,158.6765039727582
11.921666666666667,158.7866061293984
11.955,158.77979568671964
11.988333333333333,158.99770378874857
12.021666666666668,158.95782463928967
12.055000000000001,159.03387978142075
12.088333333333335,159.01816118047674
12.121666666666668,158.8720538720539
12.155000000000001,159.02285714285716
12.188333333333334,158.91240045506257
12.221666666666668,159.21387940841865
12.255,159.23617511520737
12.288333333333334,159.3375142531357
12.321666666666667,159.54413407821227
12.355,159.45828698553947
12.388333333333334,159.33481646273637
12.421666666666667,159.52386237513875
12.455,159.55382907880133
12.488333333333333,159.0962389380531
12.520000000000001,158.75312855517632
12.553333333333335,159.010101010101
12.586666666666668,158.98751418842224
12.620000000000001,159.09534619750283
12.653333333333334,159.17857142857142
12.686666666666667,158.90465380249717
12.72,158.9221218961625
12.753333333333334,159.1827133479212
12.786666666666667,159.37346711259755
12.82,159.4896174863388
12.853333333333333,159.3684794672586
12.886666666666667,159.18353726362625
12.920000000000002,159.4839779005525
12.953333333333335,159.4186813186813
12.986666666666668,159.47845303867405
13.020000000000001,158.98877665544333
13.053333333333335,158.96892341842397
13.086666666666668,159.26970033296337
13.120000000000001,159.4772475027747
13.153333333333334,159.38794084186574
13.186666666666667,159.39955604883463
13.22,159.34030837004406
13.253333333333334,159.36333333333334
13.286666666666667,159.49452954048138
13.32,159.6867469879518
13.353333333333333,159.82146768893756
13.386666666666667,159.64403066812704
13.420000000000002,159.38832772166106
13.453333333333335,159.33221099887768
13.486666666666668,159.2861952861953
13.520000000000001,159.1638608305275
13.553333333333335,159.42825848849944
13.586666666666668,159.52026286966046
13.620000000000001,159.30837004405288
13.653333333333334,159.386563876652
13.686666666666667,159.35682326621924
13.72,159.3105726872247
13.753333333333334,159.68832599118943
13.786666666666667,159.35690235690237
13.82,159.23024830699774
13.853333333333333,159.38426966292135
13.886666666666667,159.19354838709677
13.920000000000002,159.2269187986652
13.953333333333335,159.20244716351502
13.986666666666668,159.25835189309575
14.020000000000001,159.28031145717463
14.053333333333335,159.06873614190687
14.086666666666668,159.1813186813187
14.120000000000001,159.23977900552487
14.151666666666667,159.0
14.185,159.22356828193833
14.218333333333334,158.9356270810211
14.251666666666667,158.8945615982242
14.285,158.92547274749722
14.318333333333335,158.853170189099
14.351666666666668,158.8131256952169
14.385000000000002,158.91101223581757
14.418333333333335,158.27857935627082
14.451666666666668,158.27497194163863
14.485000000000001,158.38608305274974
14.518333333333334,158.50674157303374
14.551666666666668,158.57380688124306
14.585,158.65418502202644
14.618333333333334,158.39313399778516
14.651666666666667,158.55260243632335
14.685,158.41482300884957
14.718333333333334,158.72345132743362
14.751666666666667,158.73796192609183
14.785,158.56744704570792
14.818333333333335,158.38148984198645
14.851666666666668,158.39999999999998
14.885000000000002,158.8773690078038
14.918333333333335,158.7385474860335
14.951666666666668,158.662177328844
14.985000000000001,158.65207631874298
15.018333333333334,158.44254835039817
15.051666666666668,158.49272116461367
15.085,158.7905935050392
15.118333333333334,158.79749715585893
15.151666666666667,158.8646188850967
15.185,158.53469852104664
15.218333333333334,158.40159271899884
15.251666666666667,158.53535353535355
15.285,158.42889647326507
15.318333333333335,158.2303370786517
15.351666666666668,158.31938325991192
15.385000000000002,157.89597315436242
15.418333333333335,157.8110599078341
15.451666666666668,157.9438202247191
15.485000000000001,158.007769145394
15.518333333333334,157.85904550499444
15.551666666666668,157.7411111111111
15.585,157.89234184239734
15.618333333333334,157.62937853107346
15.651666666666667,157.83124287343216
15.685,157.6576271186441
15.718333333333334,157.65656565656568
15.751666666666667,157.84175084175087
15.785,157.74971941638609
15.818333333333335,157.73107344632768
15.850000000000001,157.8282485875706
15.883333333333335,157.97966101694917
15.916666666666668,158.02244668911337
15.950000000000001,157.74230330672748
15.983333333333334,158.30261660978383
16.01666666666667,158.28008998875143
16.05,158.4581497797357
16.083333333333336,157.88202247191012
16.116666666666667,157.76303854875283
16.150000000000002,157.7732884399551
16.183333333333334,157.84031710079276
16.21666666666667,157.6218961625282
16.25,157.43227990970652
16.283333333333335,157.69403824521936
16.316666666666666,157.4497716894977
16.35,157.72136563876654
16.383333333333333,157.5311111111111
16.416666666666668,157.62930077691453
16.45,157.63041065482798
16.483333333333334,157.56936736958934
16.51666666666667,157.60821309655938
16.55,157.73555555555555
16.583333333333336,157.64085297418632
16.616666666666667,157.7411894273128
16.650000000000002,157.55667789001123
16.683333333333334,157.49830508474577
16.71666666666667,157.42372881355934
16.75,157.53186558516802
16.783333333333335,157.9056179775281
16.816666666666666,157.89455388180764
16.85,157.82923976608188
16.883333333333333,157.67463026166098
16.916666666666668,157.38870056497177
16.950000000000003,157.5723905723906
16.983333333333334,157.41189674523008
17.01666666666667,157.1059371362049
17.05,157.16705069124424
17.083333333333336,157.20204313280362
17.116666666666667,157.15480225988702
17.150000000000002,157.45414364640885
17.183333333333334,157.40441988950278
17.21666666666667,157.1492027334852
17.25,157.34129692832764
17.283333333333335,157.19747416762343
17.316666666666666,157.13226909920184
17.35,157.08342989571264
17.383333333333333,157.6027241770715
17.416666666666668,157.79455164585698
17.450000000000003,157.77071509648127
17.48166666666667,157.58683314415435
17.515,157.79755283648498
17.548333333333336,157.56186152099886
17.581666666666667,157.6248574686431
17.615000000000002,157.54266211604096
17.648333333333333,157.49601820250282
17.68166666666667,157.37313432835822
17.715,157.39160045402951
17.748333333333335,157.7250280583614
17.781666666666666,157.51178451178453
17.815,157.66666666666669
17.848333333333333,157.34994337485844
17.881666666666668,157.3191733639495
17.915000000000003,157.48928974069898
17.948333333333334,157.39447513812155
17.98166666666667,157.43964562569212
18.015,157.5948081264108
18.048333333333336,157.83506343713955
18.081666666666667,157.5503875968992
18.115000000000002,157.7144456886898
18.148333333333333,157.76636568848758
18.18166666666667,157.90625
18.215,157.98751418842224
18.248333333333335,158.19523269012484
18.281666666666666,158.31243001119822
18.315,158.1460023174971
18.348333333333336,158.12685714285715
18.381666666666668,157.93540945790082
18.415000000000003,157.98493626882967
18.448333333333334,157.89107763615294
18.48166666666667,157.82098061573546
18.515,157.88509670079634
18.548333333333336,157.69383003492433
18.581666666666667,157.6066134549601
18.615000000000002,157.60768335273573
18.648333333333333,157.6290322580645
18.68166666666667,157.57076023391812
18.715,157.8574686431015
18.748333333333335,158.01581920903956
18.781666666666666,158.43598615916954
18.815,158.40802675585283
18.848333333333336,158.49107142857142
18.881666666666668,158.40088593576965
18.915000000000003,158.22322435174746
18.948333333333334,158.39305711086226
18.98166666666667,158.4971878515186
19.015,158.6803551609323
19.048333333333336,158.20980615735462
19.081666666666667,158.24266365688487
19.115000000000002,158.32218506131548
19.148333333333333,158.2108229988726
19.18,157.8439241917503
19.213333333333335,157.635241301908
19.246666666666666,157.9100998890122
19.28,157.85571587125418
19.313333333333336,157.9389567147614
19.346666666666668,157.87780269058297
19.380000000000003,157.82700892857142
19.413333333333334,158.2547065337763
19.44666666666667,157.92324805339265
19.48,158.03559510567297
19.513333333333335,157.91338582677167
19.546666666666667,158.10409745293467
19.580000000000005,158.36212624584718
19.613333333333333,158.54208754208756
19.64666666666667,158.4939226519337
19.68,158.51088201603667
19.713333333333335,158.5961319681456
19.746666666666673,158.47440273037543
19.78,158.6635944700461
19.813333333333336,158.66742338251987
19.846666666666668,159.0478905359179
19.880000000000003,158.9467258601554
19.913333333333334,158.82252559726962
19.94666666666667,158.7878787878788
19.98,158.56840934371525
20.013333333333335,158.3729189789123
20.046666666666667,158.3838383838384
20.080000000000005,158.3907134767837
20.113333333333333,158.35072142064374
20.14666666666667,158.37402885682576
20.18,158.34073251942286
20.213333333333335,158.65397536394178
20.246666666666673,158.6972067039106
20.28,158.50832408435073
20.313333333333336,158.5486033519553
20.346666666666668,158.65757906215921
20.380000000000003,158.74139844617093
20.413333333333334,158.72352285395763
20.44666666666667,158.64994425863992
20.48,159.00883977900554
20.513333333333335,158.69897377423032
20.546666666666667,158.6389521640091
20.580000000000005,158.62143671607754
20.613333333333333,158.91220068415052
20.64666666666667,158.79723502304148
20.68,158.97294250281848
20.713333333333335,158.84641638225256
20.746666666666673,158.8671963677639
20.78,158.70594837261504
20.811666666666667,158.44239631336404
20.845000000000002,158.4994311717861
20.878333333333334,158.53258426966295
20.91166666666667,158.4277652370203
20.945,158.34675615212527
20.978333333333335,158.37555066079295
21.011666666666667,158.09
21.045,158.0426966292135
21.078333333333333,158.13716814159292
21.111666666666668,157.91834451901565
21.145000000000003,158.14317673378076
21.178333333333335,158.0875420875421
21.21166666666667,158.3149779735683
21.245,158.29977628635348
21.278333333333336,158.48657718120805
21.311666666666667,158.5111856823266
21.345000000000002,158.45078299776287
21.378333333333334,158.5145413870246
21.41166666666667,158.73476297968395
21.445,158.71153846153848
21.478333333333335,158.83552631578945
21.511666666666667,158.69378531073446
21.545,158.56036446469247
21.578333333333333,158.91657397107898
21.611666666666668,159.0950226244344
21.645000000000003,158.64009111617312
21.678333333333335,158.77471264367816
21.71166666666667,158.44712643678162
21.745,158.70695553021665
21.778333333333336,158.21082949308754
21.811666666666667,157.97285067873304
21.845000000000002,157.97963800904978
21.878333333333334,157.94557823129253
21.91166666666667,158.39377085650722
21.945,158.48053392658508
21.978333333333335,158.21028571428573
22.011666666666667,158.62790697674419
22.045,158.72080088987764
22.078333333333333,158.48204570184984
22.111666666666668,158.39174107142856
22.145000000000003,158.47356828193833
22.178333333333335,158.27251995438996
22.21166666666667,158.4622222222222
22.245,158.42937853107344
22.278333333333336,158.33371298405467
22.311666666666667,158.6163594470046
22.345000000000002,158.46428571428572
22.378333333333334,158.58488372093024
22.41166666666667,158.78473804100227
22.445,158.80721533258173
22.478333333333335,158.6677927927928
22.51,158.60986547085201
22.543333333333337,158.40695067264573
22.576666666666668,158.21753986332573
22.610000000000003,158.06315789473683
22.643333333333334,158.22536806342018
22.67666666666667,158.2380410022779
22.71,158.3674832962138
22.743333333333336,158.40924464487034
22.776666666666667,158.24290578887627
22.810000000000002,158.26733780760625
22.843333333333334,157.97058823529414
22.87666666666667,158.32232346241457
22.91,158.21212121212122
22.943333333333335,158.39643652561247
22.976666666666667,158.34409799554564
23.01,157.6595982142857
23.043333333333337,157.88952164009112
23.076666666666668,158.18757192174914
23.110000000000003,158.38565022421525
23.143333333333334,158.3536036036036
23.17666666666667,158.20790960451978
23.21,158.7803790412486
23.243333333333336,158.47570621468927
23.276666666666667,158.3593220338983
23.310000000000002,158.104
23.343333333333334,157.8
23.37666666666667,157.71864406779662
23.41,157.89784335981838
23.443333333333335,157.6750285062714
23.476666666666667,157.9977142857143
23.51,157.945727482679
23.543333333333337,157.89053591790196
23.576666666666668,158.02383654937572
23.610000000000003,157.9039548022599
23.643333333333334,157.9637426900585
23.67666666666667,157.8754365541327
23.71,158.0779976717113
23.743333333333336,158.13853317811407
23.776666666666667,157.99767171129218
23.810000000000002,157.94179278230501
23.843333333333334,157.9837019790454
23.87666666666667,158.05983889528193
23.91,158.37225433526012
23.943333333333335,158.32013969732247
23.976666666666667,158.42025611175785
24.01,157.9597238204833
24.043333333333337,157.7560414269275
24.076666666666668,157.79631760644418
24.110000000000003,157.83199079401612
24.14166666666667,157.5512082853855
24.175,157.63492063492063
24.208333333333336,157.83201803833146
24.241666666666667,157.7997750281215
24.275000000000002,157.56947608200454
24.308333333333334,157.74633596392334
24.34166666666667,157.69134396355352
24.375,157.86936936936937
24.408333333333335,157.81348314606743
24.44166666666667,157.74557522123894
24.475,157.91289592760182
24.508333333333336,157.91913439635533
24.541666666666668,157.84496124031008
24.575000000000003,157.86788154897494
24.608333333333334,157.64000000000001
24.64166666666667,157.64114285714288
24.675,157.65714285714287
24.708333333333336,157.681660899654
24.741666666666667,157.48538011695908
24.775000000000002,157.29590643274855
24.808333333333334,157.37357630979497
24.84166666666667,157.7246376811594
24.875,157.23508771929824
24.908333333333335,157.3621867881549
24.94166666666667,157.58437146092865
24.975,157.28886310904872
25.008333333333336,157.33936651583713
25.041666666666668,157.68871151653363
25.075000000000003,157.6944757609921
25.108333333333334,157.63741339491918
25.14166666666667,157.57648401826484
25.175,157.70842824601365
25.208333333333336,158.03522727272727
25.241666666666667,158.2969837587007
25.275000000000002,158.1297359357061
25.308333333333334,158.1131855309218
25.34166666666667,158.16987542468857
25.375,157.57077100115075
25.408333333333335,157.54029511918273
25.44166666666667,157.6540664375716
25.475,157.72737556561088
25.508333333333336,157.70927601809956
25.541666666666668,157.7217194570136
25.575000000000003,157.58948545861298
25.608333333333334,157.5118376550169
25.64166666666667,157.5527809307605
25.675,157.39411098527748
25.708333333333336,157.67305524239006
25.741666666666667,157.7783964365256
25.775000000000002,157.8724832214765
25.808333333333334,157.84966592427617
25.840000000000003,157.8888888888889
25.873333333333335,157.60022271714922
25.90666666666667,157.82847533632287
25.94,157.68337129840546
25.973333333333336,157.3981588032221
26.006666666666668,157.55555555555557
26.040000000000003,157.45131729667813
26.073333333333334,157.74913693901036
26.10666666666667,157.83276450511946
26.14,157.7993158494869
26.173333333333336,157.7995469988675
26.206666666666667,157.8574712643678
26.240000000000002,157.9685746352413
26.273333333333333,157.94124168514412
26.30666666666667,157.64085297418632
26.340000000000003,157.76879910213245
26.373333333333335,157.59540229885056
26.40666666666667,158.01141552511416
26.44,157.7030162412993
26.473333333333336,158.06198830409357
26.506666666666668,158.00346420323325
26.540000000000003,157.9528735632184
26.573333333333334,157.8736842105263
26.60666666666667,158.18244803695148
26.64,157.97303370786517
26.673333333333336,158.00228050171037
26.706666666666667,157.98834498834498
26.740000000000002,158.1808634772462
26.773333333333333,158.63457076566124
26.80666666666667,158.6853546910755
26.840000000000003,159.07005649717516
26.873333333333335,158.96287703016242
26.90666666666667,158.88127853881278
26.94,158.65544332211
26.973333333333336,158.75311438278598
27.006666666666668,158.61861520998863
27.040000000000003,158.48379888268155
27.073333333333334,158.5303370786517
27.10666666666667,158.56629213483149
27.14,158.15765765765767
27.173333333333336,158.4255079006772
27.206666666666667,158.23617511520737
27.240000000000002,158.27865168539327
27.273333333333333,158.2996632996633
27.30666666666667,158.41685393258427
27.340000000000003,158.16009019165728
27.373333333333335,157.93912063134158
27.40666666666667,158.1112359550562
27.44,158.3165137614679
27.471666666666668,158.11460674157306
27.505000000000003,158.0011668611435
27.538333333333334,158.22322435174746
27.57166666666667,158.54565952649378
27.605,158.42316258351892
27.638333333333335,158.5213963963964
27.671666666666667,158.40243902439025
27.705000000000005,158.61915367483294
27.738333333333337,158.6407982261641
27.77166666666667,158.86141906873615
27.805000000000003,159.29711751662973
27.838333333333335,158.52434881087203
27.871666666666673,158.66289592760182
27.905,158.27701149425286
27.938333333333336,158.38768529076398
27.971666666666668,157.84144960362403
28.005000000000003,158.05310734463276
28.038333333333334,158.16384180790962
28.07166666666667,158.24287343215508
28.105,158.23050847457628
28.138333333333335,158.1310734463277
28.171666666666667,158.29356725146198
28.205000000000005,158.08700564971753
28.238333333333337,158.12881355932203
28.27166666666667,158.3593220338983
28.305000000000003,158.45029239766083
28.338333333333335,158.41772151898735
28.371666666666673,158.67344632768362
28.405,158.56670467502852
28.438333333333336,158.48446490218643
28.471666666666668,158.37272727272727
28.505000000000003,158.37875288683603
28.538333333333334,158.2788798133022
28.57166666666667,158.32088681446908
28.605,158.4284064665127
28.638333333333335,158.55827505827506
28.671666666666667,158.82746878547104
28.705000000000005,158.71721778791334
28.738333333333337,158.09776207302707
28.77166666666667,158.08244994110717
28.805000000000003,158.00577367205543
28.838333333333335,158.12952158693113
28.871666666666673,158.06120092378754
28.905,157.87514723203768
28.938333333333336,158.35367231638418
28.971666666666668,158.44379391100702
29.005000000000003,158.62207357859532
29.038333333333334,158.5033936651584
29.07166666666667,158.7084745762712
29.105,158.37066974595842
29.138333333333335,158.56328392246294
29.17,158.50115473441107
29.203333333333337,158.36500579374277
29.236666666666668,158.6700913242009
29.270000000000003,158.54908675799086
29.303333333333335,158.93742889647325
29.33666666666667,158.61771561771562
29.37,158.78310502283105
29.403333333333336,159.1398843930636
29.436666666666667,158.77471264367816
29.470000000000002,158.4090909090909
29.503333333333334,158.66289592760182
29.53666666666667,158.70147559591373
29.57,158.5954802259887
29.603333333333335,158.5496009122007
29.63666666666667,158.58285714285716
29.67,158.31885714285715
29.703333333333337,158.5769669327252
29.736666666666668,158.4225988700565
29.770000000000003,158.38057142857144
29.803333333333335,158.29540229885058
29.83666666666667,158.2801377726751
29.87,158.28587570621468
29.903333333333336,158.568
29.936666666666667,158.13898704358067
29.970000000000002,158.01650943396226
30.003333333333334,158.19339622641508
30.03666666666667,158.51095732410613
30.07,158.63133640552996
30.103333333333335,158.6440281030445
30.13666666666667,158.86416861826697
30.17,158.87353629976582
30.203333333333337,158.52777777777777
30.236666666666668,158.57175925925924
30.270000000000003,158.7799539170507
30.303333333333335,158.73340961098398
30.33666666666667,158.58115777525538
30.37,158.2743972445465
30.403333333333336,158.29850746268656
30.436666666666667,158.13379469434832
30.470000000000002,158.20372526193248
30.503333333333334,158.26932084309132
30.53666666666667,158.12645011600927
30.57,158.10069444444443
30.603333333333335,158.30192962542566
30.63666666666667,158.47673098751417
30.67,158.41446613088405
30.703333333333337,158.43132803632236
30.736666666666668,158.44202066590125
30.770000000000003,158.30917327293318
30.80166666666667,158.38556933483653
30.835,158.5201342281879
30.868333333333336,158.60178970917227
30.901666666666667,157.97835990888382
30.935000000000002,158.00230680507497
30.968333333333334,157.9434832756632
31.00166666666667,157.98625429553266
31.035000000000004,158.20378619153675
31.068333333333335,157.94002306805075
31.10166666666667,158.02721893491125
31.135,157.7340182648402
31.168333333333337,157.72791519434628
31.201666666666668,157.62529002320184
31.235000000000003,157.7938144329897
31.268333333333334,157.5028768699655
31.30166666666667,157.74971558589306
31.335,157.47558139534883
31.368333333333336,157.7476851851852
31.401666666666667,157.8103448275862
31.435000000000002,157.79441340782122
31.468333333333334,157.47624565469292
31.50166666666667,157.63272311212813
31.535000000000004,157.5551724137931
31.568333333333335,157.85022522522522
31.60166666666667,157.44508009153319
31.635,157.88100686498856
31.668333333333337,157.62674418604652
31.701666666666668,157.7803203661327
31.735000000000003,157.3649885583524
31.768333333333334,157.78300803673937
31.80166666666667,157.98175598631698
31.835,157.45914844649022
31.868333333333336,157.4313725490196
31.901666666666667,157.3936545240893
31.935000000000002,157.72727272727272
31.968333333333334,157.3673232908459
32.00166666666667,157.74883720930234
32.035000000000004,157.88720930232557
32.068333333333335,157.9674418604651
32.10166666666667,158.15438596491228
32.135000000000005,157.9216374269006
32.16833333333334,157.9873417721519
32.20166666666667,158.0145903479237
32.235,157.87973273942092
32.26833333333334,157.83389450056117
32.30166666666667,157.84615384615384
32.335,157.6726862302483
32.36833333333333,157.60092272203
32.40166666666667,157.56775700934577
32.435,157.5997693194925
32.468333333333334,157.44522144522145
32.5,157.45895953757227
32.53333333333334,157.6187214611872
32.56666666666667,157.30932703659977
32.6,157.4939903846154
32.63333333333333,157.46603098927292
32.66666666666667,157.8684210526316
32.7,157.80648899188876
32.733333333333334,157.68439716312056
32.766666666666666,158.11722488038276
32.800000000000004,158.05005959475565
32.833333333333336,157.80929678188318
32.86666666666667,157.67966903073287
32.9,157.56608187134503
32.93333333333334,157.69729093050645
32.96666666666667,157.5936395759717
33.0,157.12570145903481
33.03333333333334,157.1567505720824
33.06666666666667,157.23226544622426
33.1,157.17241379310346
33.13333333333333,157.42068965517242
33.16666666666667,157.5126436781609
33.2,157.36666666666667
33.233333333333334,157.73684210526315
33.266666666666666,157.9828375286041
33.300000000000004,157.77002288329518
33.333333333333336,157.77116704805493
33.36666666666667,157.7288329519451
33.400000000000006,158.2345537757437
33.43333333333334,158.15581395348838
33.46666666666667,158.69570135746608
33.5,158.34597701149426
33.53333333333334,158.15133876600697
33.56666666666667,157.73842592592592
33.6,157.5324074074074
33.63333333333333,157.62890173410406
33.66666666666667,157.72222222222223
33.7,157.60633484162898
33.733333333333334,157.4560185185185
33.766666666666666,157.30251141552512
33.800000000000004,157.69644902634593
33.833333333333336,157.52511415525115
33.86666666666667,157.5284280936455
33.900000000000006,157.527809307605
33.93333333333334,157.41022727272727
33.96666666666667,157.43246311010216
34.0,157.69615832363212
34.03333333333334,157.85813148788927
34.06666666666667,157.76390465380248
34.1,158.0
34.13166666666667,158.1112412177986
34.165,158.54493087557603
34.19833333333334,158.55606407322654
34.23166666666667,158.53341013824885
34.265,158.6036866359447
34.29833333333333,158.6152073732719
34.33166666666667,158.6221198156682
34.365,158.64767441860465
34.39833333333333,158.17587373167981
34.43166666666667,158.08333333333334
34.465,158.07328072153325
34.498333333333335,158.04608294930875
34.531666666666666,158.1488162344983
34.565000000000005,158.06566820276498
34.598333333333336,158.21082949308754
34.63166666666667,158.19391206313415
34.665,158.1875
34.69833333333334,158.16345062429056
34.73166666666667,158.3010146561443
34.765,158.53803131991052
34.79833333333334,158.44170403587444
34.83166666666667,158.42499999999998
34.865,158.585393258427
34.89833333333333,158.42312138728326
34.93166666666667,158.6380846325167
34.965,158.60801781737194
34.998333333333335,157.65029239766082
35.031666666666666,158.0406779661017
35.065000000000005,158.62626262626264
35.098333333333336,158.31704545454545
35.13166666666667,158.0869061413673
35.165,158.20838052095132
35.19833333333334,158.1360544217687
35.23166666666667,157.94545454545454
35.265,157.96489241223105
35.29833333333334,157.66743916570104
35.33166666666667,158.00904977375566
35.365,157.79109589041096
35.39833333333333,157.73837209302326
35.43166666666667,157.83178654292342
35.465,157.7813953488372
35.498333333333335,157.89244851258582
35.531666666666666,157.99427917620136
35.565000000000005,158.04805491990848
35.598333333333336,157.87558139534883
35.63166666666667,158.10526315789474
35.665,158.02913752913753
35.69833333333334,158.19052987598647
35.73166666666667,158.4099099099099
35.765,158.45952109464082
35.79833333333334,158.63121387283238
35.830000000000005,158.16685714285717
35.86333333333334,158.24354657687994
35.89666666666667,158.46704545454546
35.93,157.98303167420815
35.96333333333334,158.2435754189944
35.99666666666667,158.0610859728507
36.03,157.85253456221199
36.06333333333333,157.9079401611047
36.09666666666667,158.3986332574032
36.13,158.20842824601365
36.163333333333334,158.0794016110472
36.19666666666667,158.07339449541286
36.230000000000004,158.29128440366972
36.263333333333335,158.21379310344827
36.29666666666667,158.19399538106236
36.330000000000005,158.19750283768445
36.36333333333334,158.3341121495327
36.39666666666667,158.55109070034445
36.43,158.38443935926773
36.46333333333334,158.75898030127462
36.49666666666667,158.68763796909494
36.53,158.5958904109589
36.56333333333333,158.35535307517083
36.59666666666667,158.33333333333334
36.63,157.76623376623377
36.663333333333334,157.8102016607355
36.69666666666667,157.95828505214368
36.730000000000004,158.08620689655172
36.763333333333335,158.1824401368301
36.79666666666667,158.31843575418992
36.830000000000005,158.33295324971493
36.86333333333334,158.4406976744186
36.89666666666667,158.61556064073227
36.93,158.35116279069769
36.96333333333334,158.25286041189932
36.99666666666667,158.0284023668639
37.03,158.32657657657657
37.06333333333333,157.91962174940898
37.09666666666667,158.3474770642202
37.13,158.4
37.163333333333334,158.46818181818182
37.19666666666667,158.3604118993135
37.230000000000004,158.393018018018
37.263333333333335,158.43355855855856
37.29666666666667,158.2224770642202
37.330000000000005,158.05574912891987
37.36333333333334,158.085549132948
37.39666666666667,157.9338061465721
37.43,158.0307328605201
37.461666666666666,157.99881796690306
37.495000000000005,157.51489868891537
37.528333333333336,157.76758045292013
37.56166666666667,157.42011834319527
37.595,157.44418604651162
37.62833333333334,157.79907621247114
37.66166666666667,157.70116279069768
37.695,158.01039260969978
37.72833333333334,158.1254315304948
37.76166666666667,158.3283752860412
37.795,158.34553775743706
37.82833333333333,158.50228832951944
37.86166666666667,158.4232558139535
37.895,158.3810623556582
37.928333333333335,158.13837209302326
37.961666666666666,157.93995381062356
37.995000000000005,157.88901601830665
38.028333333333336,157.90646651270208
38.06166666666667,157.6268829663963
38.095000000000006,157.91954022988506
38.12833333333334,158.08237986270024
38.16166666666667,157.96189376443417
38.195,157.90993071593533
38.22833333333334,157.81524249422634
38.26166666666667,157.76852907639682
38.295,157.6341743119266
38.32833333333333,157.84545454545454
38.36166666666667,157.75172413793103
38.395,157.78023255813955
38.428333333333335,157.8816091954023
38.461666666666666,157.69906323185012
38.495000000000005,157.88194444444443
38.528333333333336,157.91511627906976
38.56166666666667,157.78798586572438
38.595000000000006,157.68904593639576
38.62833333333334,157.7290930506478
38.66166666666667,157.70011534025375
38.695,157.75409836065575
38.72833333333334,157.66666666666669
38.76166666666667,157.7046263345196
38.795,157.81775700934577
38.82833333333333,157.68263473053892
38.86166666666667,157.66823529411764
38.895,157.592899408284
38.928333333333335,157.7309468822171
38.961666666666666,157.85977011494253
38.995000000000005,157.52009456264776
39.028333333333336,157.84295612009237
39.06166666666667,157.95667447306792
39.095000000000006,158.05
39.12833333333334,158.00228832951944
39.16000000000001,158.02665121668596
39.193333333333335,157.87396937573615
39.22666666666667,158.08314087759814
39.260000000000005,158.162471395881
39.29333333333334,157.94239631336404
39.32666666666667,157.66977829638273
39.36,157.33838973162193
39.39333333333334,157.53765932792584
39.42666666666667,157.2497082847141
39.46,157.29171668667465
39.49333333333335,157.06962785114044
39.52666666666667,157.49882903981265
39.56,157.77246871444822
39.593333333333334,157.55529411764704
39.62666666666667,157.58188153310104
39.66000000000001,157.4011976047904
39.693333333333335,157.8167053364269
39.72666666666667,157.66475972540044
39.760000000000005,157.7615207373272
39.79333333333334,157.9688940092166
39.82666666666667,157.77688787185355
39.86,157.837528604119
39.89333333333334,157.87442396313364
39.92666666666667,158.1082949308756
39.96,158.12252042007
39.99333333333335,157.87962962962962
40.02666666666667,158.09655172413792
40.06,158.1668611435239
40.093333333333334,157.96759259259258
40.12666666666667,157.63002364066193
40.16000000000001,157.60326721120185
40.193333333333335,157.48148148148147
40.22666666666667,157.58371040723983
40.260000000000005,157.57434733257662
40.29333333333334,157.32413793103447
40.32666666666667,157.42528735632183
40.36,157.35172413793103
40.39333333333334,157.1875
40.42666666666667,157.16898148148147
40.46,157.37470449172577
40.49333333333335,157.23167848699762
40.52666666666667,157.27304964539007
40.56,157.36872812135354
40.593333333333334,157.1903073286052
40.62666666666667,157.4793875147232
40.66000000000001,157.2847141190198
40.693333333333335,157.38773148148147
40.72666666666667,157.4113475177305
40.760000000000005,157.54373522458627
40.79166666666667,157.66551724137932
40.825,158.02683780630105
40.858333333333334,158.06912442396313
40.89166666666667,157.88914819136522
40.925000000000004,157.4075382803298
40.958333333333336,157.5860465116279
40.99166666666667,157.3604118993135
41.025000000000006,157.3661645422943
41.05833333333334,157.61662817551962
41.09166666666667,157.60950173812282
41.125,157.50461893764435
41.15833333333334,157.57109557109558
41.19166666666667,157.83469150174622
41.225,157.81472957422324
41.25833333333333,157.87713310580205
41.29166666666667,157.85714285714286
41.325,157.81498829039813
41.358333333333334,158.10056497175142
41.39166666666667,158.04680365296804
41.425000000000004,157.765932792584
41.458333333333336,157.8584686774942
41.49166666666667,157.67848699763593
41.525000000000006,157.7421236872812
41.55833333333334,158.01508120649652
41.59166666666667,157.76868327402136
41.625,158.06077981651376
41.65833333333334,157.73050458715596
41.69166666666667,157.66319444444443
41.725,157.7052752293578
41.75833333333333,157.40023201856147
41.79166666666667,157.1855791962175
41.825,157.40185830429732
41.858333333333334,157.228672985782
41.89166666666667,157.41826923076923
41.925000000000004,157.32470588235293
41.958333333333336,158.06400000000002
41.99166666666667,157.82558139534885
42.025000000000006,157.9547038327526
42.05833333333334,157.74537037037035
42.09166666666667,157.68953488372094
42.125,157.66244239631337
42.15833333333334,157.45506912442397
42.19166666666667,157.52836879432624
42.225,157.44562647754137
42.25833333333333,157.66161026837804
42.29166666666667,157.91299303944314
42.325,157.8887587822014
42.358333333333334,158.35891381345925
42.39166666666667,158.2560553633218
42.425000000000004,158.16178194607267
42.458333333333336,158.3287356321839
42.49,157.8436406067678
42.52333333333333,157.71995332555426
42.55666666666667,157.75675675675674
42.59,157.6313953488372
42.623333333333335,157.96395348837208
42.656666666666666,158.0185614849188
42.690000000000005,158.05812574139978
42.723333333333336,157.8343057176196
42.75666666666667,157.83663943990663
42.790000000000006,157.99884792626727
42.82333333333334,157.96466431095405
42.85666666666667,157.82263710618435
42.89,157.768
42.92333333333334,158.063305978898
42.95666666666667,157.97241379310344
42.99,158.5900900900901
43.02333333333333,158.57762557077623
43.05666666666667,158.46461187214612
43.09,158.4784130688448
43.123333333333335,158.220536756126
43.156666666666666,158.14235294117645
43.190000000000005,157.9676674364896
43.223333333333336,157.74418604651163
43.25666666666667,157.34684147794994
43.290000000000006,157.5518474374255
43.32333333333334,157.4529201430274
43.35666666666667,157.4409722222222
43.39,157.70185614849188
43.42333333333334,157.68822170900694
43.45666666666667,157.39578454332553
43.49,157.7681660899654
43.52333333333333,157.55889145496536
43.55666666666667,157.58275862068965
43.59,157.50057670126876
43.623333333333335,157.56410256410257
43.656666666666666,157.45454545454547
43.690000000000005,157.69896193771626
43.723333333333336,157.6121281464531
43.75666666666667,157.5590909090909
43.790000000000006,157.22209436133485
43.82333333333334,157.22360953461975
43.85666666666667,157.3418013856813
43.89,157.3295324971494
43.92333333333334,157.3741418764302
43.95666666666667,157.10114942528736
43.99,157.20480549199084
44.02333333333333,157.3704128440367
44.05666666666667,157.39655172413794
44.09,157.4509582863585
44.12166666666667,157.3471264367816
44.155,157.37126436781608
44.18833333333334,157.6080459770115
44.22166666666667,157.38754325259515
44.255,157.3765932792584
44.288333333333334,157.69679633867278
44.32166666666667,157.78265765765767
44.355000000000004,157.7974828375286
44.388333333333335,157.79061784897024
44.42166666666667,157.7196796338673
44.455000000000005,157.46224256292905
44.48833333333334,157.2431506849315
44.52166666666667,156.71142520612483
44.555,156.99189814814815
44.58833333333334,156.89883720930231
44.62166666666667,156.9287356321839
44.655,156.71180555555554
44.68833333333334,157.24404086265608
44.72166666666667,157.30229885057472
44.755,156.99764428739692
44.788333333333334,157.15867579908675
44.82166666666667,157.1541095890411
44.855000000000004,157.44863013698628
44.888333333333335,157.587899543379
44.92166666666667,157.55361305361305
44.955000000000005,157.34426229508196
44.98833333333334,157.18706697459584
45.02166666666667,157.2193698949825
45.055,157.12368728121353
45.08833333333334,157.10151691948656
45.12166666666667,157.0137299771167
45.155,156.96511627906978
45.18833333333334,156.91477272727272
45.22166666666667,157.19932432432432
45.255,156.99769585253455
45.288333333333334,157.33445945945945
45.32166666666667,157.23502304147465
45.355000000000004,157.2034682080925
45.388333333333335,156.8587570621469
45.42166666666667,156.82485875706215
45.455000000000005,156.88141391106043
45.48833333333334,156.9005780346821
45.52166666666667,156.91843971631207
45.555,157.2018244013683
45.58833333333334,157.18308227114716
45.62166666666667,157.27364864864865
45.655,157.67840375586854
45.68833333333334,157.58361391694726
45.72166666666667,157.82623705408517
45.755,157.84234234234233
45.788333333333334,157.77790563866515
45.82,157.60159817351598
45.85333333333334,157.5366132723112
45.88666666666667,157.32608695652175
45.92,157.1567505720824
45.95333333333333,157.0400457665904
45.98666666666667,156.90846681922196
46.02,156.71494252873563
46.053333333333335,156.8287356321839
46.08666666666667,156.84367816091955
46.120000000000005,156.71691599539702
46.153333333333336,156.69463869463868
46.18666666666667,156.83878504672896
46.220000000000006,156.3663133097762
46.25333333333334,156.65448113207546
46.28666666666667,156.76682134570765
46.32,157.06745562130178
46.35333333333334,157.27462340672074
46.38666666666667,157.01783590963137
46.42,157.46750285062714
46.45333333333333,157.3073394495413
46.48666666666667,157.33949191685912
46.52,157.4044289044289
46.553333333333335,157.44042056074764
46.58666666666667,157.25641025641025
46.620000000000005,157.8805460750853
46.653333333333336,157.82271147161066
46.68666666666667,157.7250293772033
46.720000000000006,157.31704410011918
46.75333333333334,157.42528735632183
46.78666666666667,156.85812356979406
46.82,156.48463356973994
46.85333333333334,156.8356973995272
46.88666666666667,156.51126927639385
46.92,156.51132300357568
46.95333333333333,156.40898345153664
46.98666666666667,156.54883720930232
47.02,156.93280182232346
47.053333333333335,156.66743648960738
47.08666666666667,156.74942263279445
47.120000000000005,156.9302600472813
47.153333333333336,156.8203033838973
47.18666666666667,157.10544611819236
47.220000000000006,157.1870588235294
47.25333333333334,157.05516431924883
47.28666666666667,157.00689655172414
47.32,157.50461893764435
47.35333333333334,157.4919168591224
47.38666666666667,157.73556581986142
47.42,157.6539351851852
47.45166666666667,157.1063829787234
47.48500000000001,157.23031727379552
47.51833333333334,157.2913752913753
47.55166666666667,157.1221198156682
47.585,157.21976744186045
47.61833333333335,157.3
47.65166666666667,157.10618436406065
47.685,157.4584755403868
47.718333333333334,157.48876404494382
47.75166666666667,157.47667804323095
47.78500000000001,156.9302600472813
47.818333333333335,157.6493656286044
47.85166666666667,157.3952380952381
47.885000000000005,157.18906064209273
47.91833333333334,157.30202140309154
47.95166666666667,156.83924349881795
47.98500000000001,156.97635933806146
48.01833333333334,157.16206896551725
48.05166666666667,157.31085714285715
48.085,157.58809801633603
48.11833333333335,157.79929988331386
48.15166666666667,157.7432905484247
48.185,157.61726954492414
48.218333333333334,157.58303886925793
48.25166666666667,157.48279952550416
48.28500000000001,157.36989498249707
48.318333333333335,157.28486293206197
48.35166666666667,157.41075514874143
48.385000000000005,157.2443653618031
48.41833333333334,157.45652173913044
48.45166666666667,157.51873536299766
48.48500000000001,157.63096623981374
48.51833333333334,157.35915492957747
48.55166666666667,157.40324449594436
48.585,157.29861111111111
48.61833333333335,157.4809523809524
48.65166666666667,157.61130742049468
48.685,157.70245040840138
48.718333333333334,157.58983451536642
48.75166666666667,157.8607142857143
48.78500000000001,157.708284714119
48.818333333333335,157.79657142857144
48.85166666666667,157.82060185185185
48.885000000000005,157.85138248847926
48.91833333333334,157.73928157589802
48.95166666666667,157.95944380069525
48.98500000000001,157.8014268727705
49.01833333333334,158.0
49.05166666666667,157.833531510107
49.085,157.74299065420558
49.11833333333335,157.77304964539007
49.150000000000006,157.67494089834514
49.18333333333334,157.7434988179669
49.21666666666667,157.82860520094562
49.25,158.08392434988178
49.28333333333334,157.9964539007092
49.31666666666667,157.83751493428912
49.35,157.7434988179669
49.38333333333334,157.87631271878644
49.41666666666667,157.94322132097335
49.45,157.92532088681446
49.483333333333334,158.11084905660377
49.51666666666667,158.10501750291715
49.550000000000004,158.11609195402298
49.583333333333336,158.14153132250578
49.61666666666667,158.1832946635731
49.650000000000006,158.07191780821918
49.68333333333334,158.09059633027525
49.71666666666667,157.98027842227378
49.75,157.69644902634593
49.78333333333334,157.55287356321838
49.81666666666667,157.89540229885057
49.85,157.77325581395348
49.88333333333334,157.63844393592677
49.91666666666667,157.76768867924528
49.95,157.38133640552996
49.983333333333334,157.4679113185531
50.01666666666667,157.42988505747127
50.050000000000004,157.63854047890536
50.083333333333336,157.39794754846068
50.11666666666667,157.4353348729792
50.150000000000006,157.48614318706697
50.18333333333334,157.58962264150944
50.21666666666667,157.49008168028004
50.25,157.92677345537757
50.28333333333334,157.9768250289687
50.31666666666667,157.82588774341352
50.35,157.77375565610862
50.38333333333334,157.8054298642534
50.41666666666667,157.884834663626
50.45,158.20938215102976
50.483333333333334,157.8981900452489
50.51666666666667,157.74942791762012
50.550000000000004,157.7116704805492
50.583333333333336,157.0701754385965
50.61666666666667,157.53216374269007
50.650000000000006,157.4710648148148
50.68333333333334,157.48850574712642
50.71666666666667,157.6779463243874
50.75,157.95400943396226
50.78166666666667,157.68144690781796
50.815000000000005,157.77534562211983
50.848333333333336,157.88568129330253
50.88166666666667,157.6791131855309
50.915000000000006,157.95506912442397
50.94833333333334,157.81344148319815
50.98166666666667,157.47756041426928
51.015,157.62873563218392
51.04833333333334,157.7816901408451
51.08166666666667,158.11757857974388
51.115,157.99310344827586
51.14833333333333,157.80091533180777
51.18166666666667,158.13532110091745
51.215,157.57505773672054
51.248333333333335,157.45391705069125
51.28166666666667,157.3479262672811
51.315000000000005,157.2928821470245
51.348333333333336,157.31451612903226
51.38166666666667,157.18372093023257
51.415000000000006,157.4633867276888
51.44833333333334,157.24193548387098
51.48166666666667,157.51612903225808
51.515,157.2053675612602
51.54833333333334,157.37146226415095
51.58166666666667,157.35944700460828
51.615,157.823732718894
51.64833333333333,157.94688221709006
51.68166666666667,157.7865566037736
51.715,157.80188679245282
51.748333333333335,157.5753920386007
51.78166666666667,157.5419664268585
51.815000000000005,157.282325029656
51.848333333333336,157.1008303677343
51.88166666666667,157.10377358490567
51.915000000000006,157.40344827586208
51.94833333333334,157.16572077185018
51.98166666666667,156.92387543252596
52.015,157.02768166089965
52.04833333333334,156.9705188679245
52.08166666666667,157.02527075812276
52.115,157.3033448673587
52.14833333333333,157.34539089848306
52.18166666666667,157.4032634032634
52.215,157.20872641509433
52.248333333333335,157.29099307159353
52.28166666666667,157.24242424242425
52.315000000000005,157.294049008168
52.348333333333336,157.31103286384976
52.38166666666667,157.21107266435988
52.415000000000006,157.25175644028104
52.44833333333334,157.2215777262181
52.480000000000004,157.40531177829098
52.513333333333335,157.33449074074073
52.54666666666667,157.25462962962962
52.580000000000005,156.7835294117647
52.61333333333334,156.8701754385965
52.64666666666667,156.85011990407673
52.68000000000001,157.0080831408776
52.71333333333334,156.755980861244
52.74666666666667,156.57932692307693
52.78,156.77662037037035
52.81333333333334,157.2304964539007
52.84666666666667,157.28
52.88,157.38078291814946
52.913333333333334,157.0813679245283
52.94666666666667,156.7396593673966
52.980000000000004,157.27325581395348
53.013333333333335,157.3526627218935
53.04666666666667,157.05528846153848
53.080000000000005,157.1309523809524
53.11333333333334,157.41420118343194
53.14666666666667,157.42857142857142
53.18000000000001,157.0770171149144
53.21333333333334,157.1956782713085
53.24666666666667,157.41244239631337
53.28,157.55386416861828
53.31333333333334,157.4539089848308
53.34666666666667,157.49414519906324
53.38,157.12735849056602
53.413333333333334,157.078853046595
53.44666666666667,156.60047281323875
53.480000000000004,156.57604790419163
53.513333333333335,156.51616766467066
53.54666666666667,156.9300118623962
53.580000000000005,156.8891537544696
53.61333333333334,156.71149144254278
53.64666666666667,156.48928571428573
53.68000000000001,156.42137592137593
53.71333333333334,156.2761904761905
53.74666666666667,156.37223587223588
53.78,156.63805970149252
53.81333333333334,156.63132530120484
53.84666666666667,156.84578313253013
53.88,156.73190984578886
53.913333333333334,156.7449584816133
53.94666666666667,157.27830188679243
53.980000000000004,157.53488372093022
54.013333333333335,157.4737456242707
54.04666666666667,157.49193548387098
54.080000000000005,157.46082949308754
54.11166666666667,157.46162790697673
54.145,157.3813953488372
54.178333333333335,157.56004618937644
54.21166666666667,157.67824074074073
54.245000000000005,157.55581668625146
54.278333333333336,157.56694813027744
54.31166666666667,157.09489916963227
54.345000000000006,156.7304964539007
54.37833333333334,156.8451536643026
54.41166666666667,157.11404561824727
54.445,157.3549883990719
54.47833333333334,157.14525810324128
54.51166666666667,156.9714285714286
54.545,157.22326674500587
54.57833333333334,157.15081206496518
54.61166666666667,157.0983606557377
54.645,157.39578454332553
54.678333333333335,157.2779069767442
54.71166666666667,157.58207217694994
54.745000000000005,157.57754629629628
54.778333333333336,157.61046511627907
54.81166666666667,157.80369515011546
54.845000000000006,157.7813953488372
54.87833333333334,157.7540415704388
54.91166666666667,157.95496535796767
54.945,157.86258660508082
54.97833333333334,157.6186046511628
55.01166666666667,157.7093023255814
55.045,157.68488372093023
55.07833333333334,157.70116279069768
55.11166666666667,157.65967365967367
55.145,157.7544696066746
55.178333333333335,157.4650059311981
55.21166666666667,157.31844888366626
55.245000000000005,157.47657142857145
55.278333333333336,157.62587412587413
55.31166666666667,157.47306791569088
55.345000000000006,157.52214452214452
55.37833333333334,157.85983510011778
55.41166666666667,157.66433566433565
55.445,157.34060606060606
55.47833333333334,157.50956937799043
55.51166666666667,157.5967365967366
55.545,157.5644970414201
55.57833333333334,157.88567990373045
55.61166666666667,157.87470725995317
55.645,157.8581818181818
55.678333333333335,158.02979737783073
55.71166666666667,157.68402777777777
55.745000000000005,157.9894613583138
55.778333333333336,158.051497005988
55.81,158.20143027413587
55.843333333333334,158.3951048951049
55.87666666666667,158.01627906976745
55.91000000000001,158.17832167832168
55.943333333333335,157.4894859813084
55.976666666666674,157.54016298020954
56.010000000000005,157.58372093023254
56.04333333333334,157.6705336426914
56.07666666666667,157.68712394705176
56.11000000000001,157.6602870813397
56.14333333333334,157.56029232643118
56.17666666666667,157.46995192307693
56.21,157.68772348033372
56.24333333333335,157.78812572759023
56.27666666666667,157.6145584725537
56.31,157.81538461538463
56.343333333333334,157.8185011709602
56.37666666666667,157.96135831381733
56.41000000000001,157.90095465393796
56.443333333333335,158.06713780918727
56.476666666666674,157.96094674556213
56.510000000000005,158.1060070671378
56.54333333333334,157.81507656065958
56.57666666666667,157.58045292014302
56.61000000000001,157.79435957696828
56.64333333333334,158.1813898704358
56.67666666666667,157.90295857988167
56.71,157.9705535924617
56.74333333333335,158.09230769230768
56.77666666666667,157.95351609058403
56.81,157.82155688622754
56.843333333333334,157.77149587750293
56.87666666666667,157.8450536352801
56.91000000000001,157.8059171597633
56.943333333333335,157.83934807916182
56.976666666666674,157.58352668213456
57.010000000000005,157.2596153846154
57.04333333333334,157.67885714285717
57.07666666666667,157.60645933014354
57.11000000000001,157.43934040047114
57.14333333333334,157.6251441753172
57.17666666666667,157.34382284382284
57.21,157.34767441860464
57.24333333333335,157.69221967963387
57.27666666666667,157.6639534883721
57.31,157.83255813953488
57.343333333333334,157.92558139534884
57.37666666666667,157.97350230414747
57.41000000000001,158.08225616921268
57.44166666666667,157.74744027303754
57.475,157.855464159812
57.50833333333334,157.6553341148886
57.54166666666667,157.23203769140164
57.575,157.1364175563464
57.608333333333334,157.32432432432432
57.64166666666667,157.454759106933
57.675000000000004,157.20114285714286
57.708333333333336,157.17285382830624
57.74166666666667,157.01972157772622
57.775000000000006,156.6889400921659
57.80833333333334,156.9211136890951
57.84166666666667,157.20608899297423
57.87500000000001,157.1947004608295
57.90833333333334,157.08953488372092
57.94166666666667,156.86299765807962
57.975,156.8004667444574
58.00833333333334,157.08860759493672
58.04166666666667,157.0232018561485
58.075,157.00800915331808
58.108333333333334,156.93483412322277
58.14166666666667,156.5693950177936
58.175000000000004,157.17564402810305
58.208333333333336,157.41100702576114
58.24166666666667,156.9871645274212
58.275000000000006,156.51066350710903
58.30833333333334,156.52392065344222
58.34166666666667,156.44264194669756
58.37500000000001,156.6592505854801
58.40833333333334,156.5928899082569
58.44166666666667,156.32502965599053
58.475,156.29655990510085
58.50833333333334,156.28333333333336
58.54166666666667,155.91050119331743
58.575,155.94464500601686
58.608333333333334,156.21002386634845
58.64166666666667,156.0
58.675000000000004,156.28605200945626
58.708333333333336,156.40898345153664
58.74166666666667,156.5399061032864
58.775000000000006,156.4892601431981
58.80833333333334,156.6073546856465
58.84166666666667,156.83723653395785
58.87500000000001,156.71543778801842
58.90833333333334,156.8116113744076
58.94166666666667,156.73045507584595
58.975,156.75345622119815
59.00833333333334,156.26713947990544
59.04166666666667,156.45274212368727
59.075,156.22603550295858
59.108333333333334,156.72906976744187
59.14,156.59786476868328
59.17333333333334,156.64712918660285
59.20666666666667,156.59128386336866
59.24,156.5745164960182
59.27333333333334,156.47703180212014
59.30666666666667,156.59907300115876
59.34,156.90070093457942
59.373333333333335,156.55384615384617
59.40666666666667,156.36286407766988
59.440000000000005,156.73136094674555
59.473333333333336,156.5319662243667
59.50666666666667,156.62589928057554
59.540000000000006,156.02038369304555
59.57333333333334,156.04076738609112
59.60666666666667,156.0685096153846
59.64,156.12857142857143
59.67333333333334,156.36042402826854
59.70666666666667,156.0904761904762
59.74,156.08432304038004
59.77333333333334,156.00721153846155
59.80666666666667,156.02969121140143
59.84,156.0718492343934
59.873333333333335,156.14792899408283
59.90666666666667,156.05152224824357
59.940000000000005,156.60541813898703
59.973333333333336,156.28621908127207
60.00666666666667,156.34793187347933
