Time,Signal_1
0.0,166.3716915995397
0.032,165.83950617283952
0.06406666666666667,165.14429530201343
0.0959,164.704128440367
0.12810000000000002,165.24436936936937
0.16,165.03790412486063
0.19196666666666667,164.858407079646
0.224,164.9372197309417
0.25623333333333337,164.33407821229048
0.3040333333333333,164.80699774266364
0.33613333333333334,165.01111111111112
0.36793333333333333,165.21570796460176
0.3999666666666667,166.04504504504504
0.43210000000000004,166.37133182844244
0.4641,165.2701793721973
0.49610000000000004,165.23622047244095
0.5280333333333334,165.28507795100222
0.5600333333333334,165.8759864712514
0.5920666666666667,166.11516533637402
0.6241,166.5948081264108
0.6719666666666667,166.13063063063063
0.7040333333333334,165.67381489841986
0.7359666666666667,165.34343434343435
0.7681333333333333,165.80684326710818
0.8000333333333334,165.6603982300885
0.8319666666666667,165.4983606557377
0.864,165.3460698689956
0.8961,165.04162102957284
0.9281333333333334,165.13033953997808
0.9600333333333334,165.1089108910891
0.9920333333333334,165.15881708652793
1.0399,165.44140197152245
1.0719666666666667,165.42684268426842
1.1041333333333334,165.16684723726976
1.1359666666666668,165.63813651137593
1.1680000000000001,165.4434490481523
1.1999666666666666,165.2035010940919
1.2320666666666666,164.85650723025583
1.264,165.33964365256125
1.2960666666666667,164.76749435665914
1.3281666666666667,165.31326644370122
1.3760333333333334,165.29312288613303
1.4080333333333335,165.01487414187642
1.4399666666666668,165.1929223744292
1.4720666666666666,165.54626532887403
1.5040333333333333,165.7146017699115
1.5360999999999998,165.30584192439864
1.5681666666666667,165.1726862302483
1.6000333333333336,165.68580715059588
1.6320666666666668,165.78223185265438
1.6641000000000001,165.7281659388646
1.6960000000000002,166.5825791855204
1.7440333333333333,166.04415011037528
1.7761,165.27746947835738
1.8081333333333334,166.3261851015801
1.8400666666666667,166.28604118993135
1.8722,166.36894273127754
1.9041333333333335,166.20994475138122
1.9360666666666668,166.33804347826086
1.9681333333333335,166.18806306306305
2.0001333333333333,165.89878987898788
2.0320666666666667,166.009900990099
2.0640666666666667,165.96699669966995
2.1119,166.0065934065934
2.144,165.89977477477478
2.176,165.85395763656632
2.208066666666667,165.7795100222717
2.24,165.9988726042841
2.2720000000000002,166.2631004366812
2.304066666666667,166.11928651059085
2.336066666666667,166.25573770491803
2.3681666666666668,166.1231802911534
2.4000333333333335,166.27062706270627
2.4481,166.7035794183445
2.48,165.79106145251396
2.5121333333333333,165.36612021857923
2.543966666666667,166.5060506050605
2.575966666666667,165.3967213114754
2.6079333333333334,166.61244541484714
2.640066666666667,165.44371584699454
2.6721,165.56626506024097
2.704066666666667,165.36284153005465
2.7361,166.23835920177385
2.7681,166.19323144104803
2.8162333333333334,165.79264214046822
2.8481333333333336,166.1685022026432
2.8800000000000003,165.93839383938393
2.9120999999999997,166.0591456736035
2.9442666666666666,166.1979865771812
2.976,166.13333333333333
3.007966666666667,165.99454148471614
3.0400666666666667,166.43910614525137
3.0721333333333334,165.8942731277533
3.1042666666666667,165.66157205240174
3.136066666666667,165.88175675675674
3.1841000000000004,165.77486338797814
3.2160333333333333,166.31400437636762
3.2481,166.36663007683865
3.2801666666666667,166.1442731277533
3.3121,166.43326039387307
3.3440333333333334,166.28444444444443
3.3761,164.57865786578657
3.408066666666667,166.35596933187296
3.439966666666667,166.1136612021858
3.4722666666666666,166.23497267759564
3.52,166.44701986754967
3.552,165.59238521836505
3.584166666666667,165.72379912663754
3.6161333333333334,165.28371089536137
3.6481000000000003,165.46271929824562
3.679966666666667,165.77814207650275
3.7120333333333333,166.84422657952072
3.7440333333333333,165.6495633187773
3.776066666666667,166.82432432432432
3.808066666666667,166.32894736842104
3.8401,166.4145251396648
3.8879,166.25245901639343
3.9201333333333337,166.17196056955092
3.9520000000000004,165.6956043956044
3.984,166.0330396475771
4.016,165.51965065502182
4.048166666666667,165.41299559471366
4.079933333333334,165.51548672566372
4.112033333333334,165.7085152838428
4.1442000000000005,165.33783783783784
4.176166666666667,165.26914414414415
4.208066666666667,165.85262008733625
4.256,165.54585152838428
4.2879000000000005,165.8863387978142
4.319933333333333,165.58187772925763
4.352133333333334,166.5518018018018
4.3842,166.56644144144144
4.416,165.81420765027323
4.4481,166.31441048034932
4.480066666666667,166.74041621029573
4.512,166.44819819819818
4.5440000000000005,166.5349099099099
4.592066666666667,166.47904869762175
4.6240000000000006,166.19495412844037
4.655966666666667,166.09714285714287
4.688133333333334,166.15437003405222
4.7199333333333335,166.05436013590034
4.751966666666667,166.07096069868996
4.784033333333333,166.1659388646288
4.8162,165.82417582417582
4.847933333333334,165.87213114754098
4.879966666666667,165.83387978142076
4.912066666666667,165.9854748603352
4.96,165.6160616061606
4.992100000000001,165.86862967157418
5.024033333333334,166.2367256637168
5.056,166.32067039106144
5.087933333333334,167.34113712374582
5.1201,166.8507295173962
5.152066666666667,166.3898678414097
5.183966666666667,166.86681222707423
5.216166666666667,166.53333333333333
5.248166666666667,166.49313501144164
5.280033333333334,166.35220838052095
5.328133333333334,165.95857307249713
5.36,166.11195652173913
5.391966666666667,166.2456331877729
5.424,166.46549835706463
5.456300000000001,165.78260869565216
5.487966666666667,166.27282728272826
5.520033333333334,166.92513966480445
5.552066666666667,166.52026286966046
5.5841,166.84008762322014
5.6161666666666665,166.52986725663717
5.6641,166.69644902634593
5.6961,167.2331081081081
5.728133333333334,166.69686411149826
5.760133333333334,166.60659340659342
5.791966666666667,167.22602739726025
5.824133333333334,166.6956043956044
5.856133333333333,166.77312775330398
5.8882,167.4835787089468
5.920133333333333,165.9041248606466
5.952100000000001,167.6036717062635
5.984,166.83896396396395
6.0319,165.53907134767837
6.063966666666667,165.792
6.096166666666667,165.74775784753362
6.128033333333334,165.89821029082773
6.16,166.16299559471366
6.192066666666667,165.8018018018018
6.2241333333333335,165.88513513513513
6.256200000000001,165.8257403189066
6.288166666666667,165.44183445190157
6.32,165.9103139013453
6.352233333333333,165.65513392857142
6.400033333333334,165.9017857142857
6.4321,166.0054945054945
6.464,166.61920903954802
6.4961,165.78982300884957
6.528166666666667,166.16129032258064
6.559966666666667,165.72909698996656
6.592033333333334,165.42984409799553
6.6241,165.72967032967034
6.656133333333334,165.71666666666667
6.688166666666667,165.45303867403317
6.736166666666667,166.34802259887007
6.768066666666667,165.64791901012376
6.800000000000001,165.27555555555554
6.832133333333334,164.7335562987737
6.864133333333334,165.05610561056105
6.896133333333333,166.02733485193622
6.928100000000001,165.0633879781421
6.960100000000001,165.1283783783784
6.992166666666667,165.93243243243242
7.024133333333333,165.99885583524028
7.056166666666667,166.42921857304646
7.104133333333333,165.97826086956522
7.136166666666667,165.15919282511211
7.168333333333334,165.32677595628417
7.2001333333333335,165.12048192771084
7.232,165.52178649237473
7.264066666666667,165.62336244541484
7.2961,165.6867469879518
7.328133333333334,165.44578313253012
7.360133333333334,165.25412541254124
7.3920666666666675,165.37623762376236
7.440066666666667,165.4627363737486
7.472066666666667,166.1800679501699
7.5042,166.1295045045045
7.536033333333334,165.50837988826814
7.567966666666667,165.983164983165
7.6001,164.84505494505495
7.632133333333334,166.08108108108107
7.664066666666667,165.93544733861836
7.696066666666667,166.15878378378378
7.727966666666667,165.9617117117117
7.760166666666667,165.30996714129245
7.8082,165.9282460136674
7.840066666666667,165.28368017524645
7.872033333333333,165.3523600439078
7.903933333333334,165.35846994535518
7.936233333333334,166.2420814479638
7.968266666666667,165.8619528619529
8.000033333333334,165.2622950819672
8.032066666666667,165.3756967670011
8.064166666666667,165.85159817351598
8.095933333333333,165.72644721906923
8.128066666666667,164.84926884139483
8.175966666666667,164.70701357466064
8.208066666666667,164.2463768115942
8.240066666666667,165.50622876557193
8.272133333333334,165.45952109464082
8.303966666666668,165.61373873873873
8.336033333333333,165.15034168564918
8.368066666666667,164.91309255079005
8.400233333333334,164.86547085201792
8.431966666666668,164.86486486486487
8.463966666666668,164.63791146424518
8.512,164.12665198237886
8.544,164.66153846153847
8.576066666666668,164.7065934065934
8.608333333333334,165.10843373493975
8.640066666666668,164.98019801980197
8.672133333333333,165.1442731277533
8.7042,164.58849557522123
8.7362,164.8376906318083
8.7681,164.74555555555557
8.8,164.55555555555554
8.832166666666668,164.03571428571428
8.879933333333334,165.01200873362444
8.912066666666668,164.8951965065502
8.944033333333334,164.44707207207207
8.976033333333334,164.32041049030786
9.008,164.0333704115684
9.040266666666668,164.76280623608017
9.072133333333333,165.50492880613362
9.104033333333334,164.956570155902
9.1361,165.6768558951965
9.168266666666668,165.34513274336283
9.200000000000001,165.3012600229095
9.248133333333334,165.37663755458513
9.279966666666667,165.6593886462882
9.312066666666666,165.35857461024497
9.344166666666666,165.63256325632562
9.376033333333334,165.1945054945055
9.408066666666667,165.02004454342983
9.439933333333334,165.11777777777777
9.472266666666668,164.79977375565613
9.504066666666667,165.14785553047403
9.536,165.0278706800446
9.583966666666667,165.34187082405344
9.616100000000001,166.20426487093155
9.648200000000001,166.33823529411765
9.680033333333334,166.25028058361394
9.712033333333334,165.5508379888268
9.744100000000001,165.18506131549609
9.776133333333334,164.9621380846325
9.808233333333334,164.9009009009009
9.839966666666667,165.26965065502182
9.872066666666667,164.86733556298773
9.904066666666667,165.21248630887186
9.952033333333334,165.21902654867256
9.984133333333334,165.4236725663717
10.016200000000001,165.1813063063063
10.047966666666667,163.5596846846847
10.08,163.9598662207358
10.112166666666669,163.4238042269188
10.144066666666667,163.61036036036035
10.176033333333335,163.48648648648648
10.208300000000001,163.90078037904124
10.240166666666667,164.52796420581655
10.272133333333334,164.2076749435666
10.320133333333334,164.3551296505073
10.352,164.97255762897916
10.384033333333333,164.9090909090909
10.416033333333333,165.03066812705367
10.448133333333335,164.48873873873873
10.479966666666668,165.48144104803492
10.512033333333333,164.60247747747746
10.544166666666667,164.7953539823009
10.576166666666667,165.45982142857142
10.608166666666667,165.46613995485325
10.655966666666668,165.09
10.687933333333334,164.99326599326602
10.719866666666666,164.82716049382717
10.7522,165.57995735607676
10.7842,165.63344407530454
10.8161,165.04190260475653
10.848066666666668,165.1118568232662
10.8801,165.39910313901345
10.912066666666668,165.1748878923767
10.944066666666668,165.24090909090907
10.9761,165.34103410341032
11.024033333333334,165.082774049217
11.056033333333334,165.08187772925763
11.088166666666668,165.0771812080537
11.120066666666666,165.32197802197803
11.152066666666666,165.27886710239653
11.184166666666668,164.59267734553777
11.2162,166.18324022346368
11.248033333333336,164.9808126410835
11.280000000000001,165.44345898004434
11.312033333333334,164.9079822616408
11.3443,165.11002178649238
11.392000000000001,166.05405405405406
11.424033333333334,164.68497757847533
11.456033333333334,165.39553072625696
11.488133333333334,165.35589519650654
11.520133333333334,165.29171270718234
11.552133333333334,165.93363329583804
11.584000000000001,165.84983314794215
11.616100000000001,166.1283783783784
11.648200000000001,166.32579185520365
11.68,166.1829268292683
11.728133333333334,166.70535714285714
11.76,166.59151785714286
11.792033333333334,166.23470522803115
11.824066666666667,165.91323692992214
11.856166666666667,166.35972850678735
11.888066666666667,166.30987514188422
11.920033333333334,166.1166477916195
11.952,166.41150442477877
11.984066666666667,166.31050228310502
12.016033333333334,166.7313266443701
12.048066666666667,166.15480225988702
12.095966666666667,166.9866220735786
12.1281,166.63322185061315
12.160200000000001,165.53477765108323
12.1921,165.67945823927764
12.224133333333334,166.14867841409693
12.2561,166.71896162528216
12.288133333333334,166.65540540540542
12.3201,166.31644144144144
12.352066666666667,165.48411829134722
12.384,165.81021087680355
12.416033333333335,165.98017621145377
12.464,166.25279642058166
12.4961,166.4280860702152
12.528033333333333,166.23873873873873
12.560033333333333,166.2559456398641
12.592066666666668,166.07248018120046
12.624066666666668,166.29484304932734
12.656133333333335,165.9658314350797
12.688033333333333,166.1175799086758
12.720066666666668,166.28346456692915
12.752166666666668,166.26666666666668
12.800066666666668,166.33031674208146
12.832,166.48045977011495
12.863933333333334,166.22853957636565
12.895900000000001,166.07494407158836
12.928066666666668,166.33035714285714
12.960033333333334,166.27941176470588
12.992033333333334,166.26659167604052
13.0241,166.02183908045976
13.056133333333333,165.98761261261262
13.088133333333333,165.98910675381265
13.120033333333334,166.86495535714286
13.168166666666668,166.59593679458237
13.199933333333334,166.00339750849378
13.232033333333332,165.29243119266056
13.264100000000001,164.5924276169265
13.295966666666667,165.14410480349343
13.327933333333334,164.93756845564073
13.360066666666667,165.20847268673356
13.392166666666668,165.78221208665906
13.4242,165.5814732142857
13.456066666666668,166.4551495016611
13.488033333333334,165.87252747252748
13.536000000000001,165.6928961748634
13.568233333333334,165.45135746606337
13.600066666666667,166.24832962138083
13.632000000000001,166.7750556792873
13.664133333333334,165.8617614269788
13.696033333333334,165.97993311036788
13.727933333333334,166.0
13.760066666666667,165.8138238573021
13.792066666666667,165.6825221238938
13.824233333333334,165.55641592920352
13.8719,165.12782805429865
13.904200000000001,165.4612831858407
13.936100000000001,165.10985277463195
13.968066666666667,165.22522522522522
13.999933333333335,165.8296213808463
14.032233333333334,165.65723981900453
14.064066666666667,165.24422442244224
14.096,165.37020810514787
14.127933333333335,164.9943566591422
14.160033333333335,165.61244541484714
14.192033333333335,165.55445544554453
14.24,165.1816168327796
14.272,165.22297297297297
14.304033333333335,165.08360836083608
14.336133333333335,166.02918069584737
14.368133333333335,165.3256325632563
14.399966666666668,165.84030837004406
14.432033333333335,165.51059085841695
14.464233333333334,166.19394618834082
14.4961,165.53121577217962
14.528,165.90337078651686
14.560033333333333,165.51478641840086
14.607966666666668,165.99326599326602
14.639966666666668,165.3477789815818
14.6722,164.83612040133778
14.704166666666667,164.8368017524644
14.736033333333333,165.96432552954292
14.768033333333333,166.21763392857142
14.8001,166.01351351351352
14.832133333333333,165.77537058152794
14.863966666666668,165.7196796338673
14.896033333333333,165.7545045045045
14.944,165.77036199095025
14.976033333333334,165.82545045045046
15.007900000000001,165.9605855855856
15.0401,165.88175675675674
15.072033333333334,165.28392246294186
15.104166666666668,165.47747747747746
15.136166666666668,165.0720524017467
15.168166666666668,165.91103603603602
15.200000000000001,165.84597432905483
15.232166666666668,165.6712643678161
15.264100000000001,165.397479954181
15.312100000000001,164.7603121516165
15.344000000000001,165.17146017699116
15.376100000000001,165.5620842572062
15.408000000000001,165.72853828306265
15.440033333333334,164.955832389581
15.472033333333334,164.85825027685493
15.504066666666667,166.02828054298644
15.535966666666667,165.5400457665904
15.568133333333334,165.55090497737558
15.600000000000001,165.71493212669685
15.648100000000001,165.85472972972974
15.679933333333334,165.7254004576659
15.712100000000003,165.3641488162345
15.744133333333334,165.337822671156
15.775933333333334,165.36036036036035
15.808000000000002,165.72511312217196
15.840033333333334,166.10247747747746
15.872066666666667,165.15604395604396
15.904133333333336,165.10224719101126
15.936,165.82013574660635
15.968033333333334,165.85472972972974
16.015933333333333,164.87885462555067
16.048033333333333,165.59932659932662
16.080033333333333,163.15878378378378
16.112066666666667,164.69004524886878
16.1441,164.0601092896175
16.176033333333333,164.53863134657837
16.2081,163.89301310043666
16.239966666666668,164.96621621621622
16.271966666666668,164.8641975308642
16.303933333333333,165.10078387458006
16.336166666666667,164.67650273224044
16.3841,164.15735461801597
16.416033333333335,164.91169724770643
16.4481,164.24099099099098
16.479966666666666,164.4882154882155
16.512133333333335,165.22850678733033
16.5441,165.1964085297419
16.5762,165.5331088664422
16.60816666666667,165.46015712682382
16.6402,165.481981981982
16.672166666666666,165.64659977703457
16.720033333333333,165.28378378378378
16.752033333333333,165.74324324324323
16.783933333333334,165.47184684684686
16.816066666666668,165.39518900343643
16.848166666666668,164.91392978482446
16.880033333333333,165.22767857142856
16.912033333333333,165.1812998859749
16.944133333333333,165.22184300341297
16.976200000000002,165.32302405498282
17.008,165.00801832760595
17.040033333333334,165.31614349775785
17.087966666666667,165.41515837104075
17.119933333333336,165.19620958751392
17.1521,165.61204013377926
17.184233333333335,165.84187082405344
17.216133333333335,165.09464082098063
17.248033333333336,164.9264705882353
17.280166666666666,164.51075877689695
17.3121,165.0078563411897
17.344066666666667,164.7995469988675
17.376066666666667,164.99102132435468
17.408266666666666,165.22446689113357
17.45606666666667,165.5106861642295
17.4881,165.39680729760548
17.52,165.5852534562212
17.551933333333334,165.26374859708196
17.58396666666667,164.5385500575374
17.61616666666667,165.44707207207207
17.64806666666667,165.33333333333334
17.68,165.41554054054055
17.712133333333334,164.9418472063854
17.74416666666667,165.25
17.792133333333336,164.9714937286203
17.824,165.05387205387206
17.856066666666667,165.2767154105737
17.8881,165.00679501698755
17.9201,164.63318777292577
17.952133333333336,164.96062992125985
17.984033333333333,165.71846846846847
18.015933333333333,165.67346938775512
18.048233333333336,165.5827664399093
18.080033333333333,164.78602620087335
18.112066666666667,164.81306306306305
18.16,165.55795454545455
18.19206666666667,165.19930875576037
18.22416666666667,165.50113122171948
18.25616666666667,165.45117845117846
18.28803333333334,165.52477477477478
18.32,164.7616875712657
18.35206666666667,163.9933184855234
18.384033333333335,164.7631874298541
18.415933333333335,164.6485260770975
18.448,164.15841584158414
18.479933333333335,164.56058890147227
18.528066666666668,163.9159388646288
18.560100000000002,164.95398428731764
18.592033333333333,164.57393209200438
18.624000000000002,164.74808324205915
18.656100000000002,164.32808988764046
18.688133333333333,164.15513392857142
18.720133333333333,164.44568868980963
18.752000000000002,164.519955654102
18.783966666666668,164.36026200873363
18.816200000000002,164.50054764512595
18.8639,165.30855855855856
18.896,165.38324022346367
18.927933333333335,164.3975903614458
18.96,164.28381374722838
18.9921,165.06981981981983
19.024166666666666,165.32844243792323
19.056033333333335,165.32959641255604
19.088033333333335,164.5974770642202
19.120033333333335,165.2329988851728
19.152166666666666,165.14204545454544
19.184033333333335,164.81379310344826
19.232033333333334,165.18547486033518
19.264,164.9660633484163
19.295933333333334,164.9045977011494
19.328133333333334,164.031903190319
19.360033333333334,163.94104803493448
19.39206666666667,164.38100558659215
19.424,164.94683257918552
19.456166666666668,164.82579185520365
19.4881,164.64758698092032
19.520033333333334,164.4167597765363
19.552,164.99321266968326
19.599933333333333,165.0158371040724
19.633366666666667,165.17420814479638
19.664066666666667,165.38745800671893
19.696,165.0683856502242
19.727933333333333,164.88825541619156
19.76,165.0281848928974
19.792166666666667,165.1509009009009
19.824233333333336,165.02699662542184
19.856066666666667,165.18047673098752
19.888133333333336,164.80634201585505
19.93606666666667,165.1436716077537
19.96816666666667,164.631156930126
20.000133333333334,164.72488584474885
20.032,165.4506726457399
20.064033333333334,165.32022471910113
20.0962,164.96367763904652
20.12806666666667,164.3170189098999
20.15996666666667,164.72696629213485
20.19206666666667,164.6677927927928
20.224233333333334,165.07562076749434
20.2562,165.0225225225225
20.304100000000002,165.36013590033977
20.335966666666668,165.72153325817362
20.368133333333333,165.68346111719606
20.400000000000002,165.12583518930958
20.432166666666667,165.28265765765767
20.464066666666664,165.488986784141
20.49606666666667,164.25573394495413
20.528066666666668,165.1483578708947
20.560100000000002,165.11284916201117
20.592100000000002,165.3938393839384
20.624066666666668,165.3927392739274
20.672066666666666,165.38579234972678
20.703933333333335,165.3209200438116
20.73616666666667,165.42920847268672
20.76816666666667,164.94144144144144
20.8,165.1418918918919
20.832066666666666,165.5033185840708
20.8641,164.95205479452054
20.895966666666666,165.57079646017698
20.928166666666666,165.58185840707964
20.960033333333335,165.2118171683389
21.007933333333334,164.39735099337747
21.040100000000002,164.4644030668127
21.072166666666668,165.04338153503892
21.104066666666668,165.03546910755148
21.136066666666668,165.1993281075028
21.168066666666668,165.2031425364759
21.200100000000003,165.25113122171948
21.232033333333334,164.75598631698975
21.264133333333334,165.3715909090909
21.296200000000002,165.37856328392246
21.328200000000002,165.30444697833525
21.376133333333335,165.21144859813083
21.407933333333336,164.9212328767123
21.4399,166.1879350348028
21.472033333333336,165.6020293122886
21.504233333333335,165.4497716894977
21.536166666666666,165.45608108108107
21.568133333333336,165.26923076923077
21.6001,165.45361990950227
21.632166666666667,165.6356413166856
21.664066666666667,165.72340425531914
21.6961,165.52727272727273
21.74406666666667,165.5301478953356
21.77606666666667,165.65068493150685
21.808033333333334,165.5804274465692
21.84,165.58428246013668
21.8719,165.61148648648648
21.90396666666667,165.21694915254238
21.936,165.58428246013668
21.9681,165.61036036036035
22.0,165.5303550973654
22.032033333333334,165.43785632839226
22.080033333333333,165.81184668989548
22.112033333333333,165.59706546275393
22.144166666666667,165.73280721533257
22.176133333333336,165.75000000000003
22.208133333333336,166.19933184855233
22.240033333333333,165.50574712643677
22.272166666666667,166.0810502283105
22.304100000000002,166.24434389140274
22.335933333333333,166.01489117983965
22.368066666666667,166.13099415204678
22.400133333333333,165.82298850574713
22.448,165.33528037383175
22.4801,165.57754629629628
22.512,165.73015873015873
22.544,166.25917686318132
22.57606666666667,165.96921322690991
22.608233333333335,166.69541484716157
22.640033333333335,166.8646288209607
22.671933333333335,165.91913439635533
22.703933333333335,166.4203539823009
22.73616666666667,165.54736842105262
22.768066666666666,166.11265969802554
22.816200000000002,165.25591882750845
22.848033333333333,164.79408543263963
22.880033333333333,165.7678369195923
22.912100000000002,165.85925085130532
22.944133333333333,165.06942889137738
22.976100000000002,166.10149942329875
23.008000000000003,164.80602006688963
23.040200000000002,165.8608597285068
23.072133333333333,165.47935779816515
23.104033333333334,166.64924506387922
23.1519,165.4483541430193
23.184033333333335,165.77304147465438
23.216033333333336,166.32798165137615
23.248166666666666,166.26576576576576
23.28,166.07474518686297
23.312066666666666,165.9310344827586
23.3441,166.2975495915986
23.3762,165.375
23.408166666666666,165.76484018264838
23.440066666666667,165.609756097561
23.4721,166.11918274687855
23.520133333333334,165.9268018018018
23.552033333333334,165.92105263157896
23.58406666666667,165.7027027027027
23.61616666666667,165.56398640996605
23.64806666666667,165.5183908045977
23.6801,165.22311212814645
23.71206666666667,166.41571753986332
23.744,165.8589164785553
23.776133333333334,165.8211009174312
23.8081,166.57538802660753
23.856,166.42619311875694
23.888166666666667,166.0259593679458
23.920066666666667,166.1086956521739
23.952,166.06306306306305
23.983933333333333,166.170814479638
24.0161,165.78603603603602
24.0481,165.82814302191466
24.080033333333333,165.69669327251995
24.112133333333336,166.20181405895693
24.1442,166.02815315315314
24.176066666666667,166.31625835189308
24.223933333333335,165.664343786295
24.25616666666667,166.38218714768882
24.288133333333334,166.59562841530055
24.32016666666667,166.589462129528
24.35216666666667,166.4512195121951
24.38406666666667,167.23529411764707
24.41596666666667,167.29271070615033
24.448233333333334,166.31843575418992
24.480033333333335,166.71949828962371
24.51206666666667,167.04185520361992
24.5441,165.95553021664767
24.592066666666668,166.29484304932734
24.624066666666668,167.73559322033898
24.656133333333333,166.16608594657376
24.687966666666668,166.57931034482758
24.720033333333333,166.916091954023
24.752066666666668,166.69310344827585
24.784200000000002,166.79842342342343
24.816033333333333,166.88100686498856
24.848033333333333,166.0938215102975
24.880033333333333,166.88526434195728
24.927933333333335,166.66780045351473
24.960133333333335,166.43367935409458
24.992,166.31014823261117
25.024066666666666,165.1834862385321
25.0561,166.20673635307782
25.08816666666667,166.27972819932052
25.12016666666667,164.59153318077804
25.152133333333335,165.23611111111111
25.1842,165.3054587688734
25.216133333333335,165.65625
25.247966666666667,166.46559633027525
25.296033333333334,165.56666666666666
25.32796666666667,165.37712344280862
25.360033333333334,166.02883506343716
25.392033333333334,165.8051341890315
25.424233333333333,165.67828106852497
25.456033333333334,165.82016036655213
25.488133333333334,164.610538373425
25.52006666666667,165.04805491990848
25.55216666666667,164.94508009153319
25.584033333333334,165.1818181818182
25.616133333333334,164.9685746352413
25.663966666666667,165.7785234899329
25.695966666666667,165.4696449026346
25.728066666666667,165.69387755102042
25.760133333333336,165.33867276887872
25.792033333333336,165.34959349593495
25.824,165.5766590389016
25.856266666666667,166.01752336448598
25.888066666666667,165.85926773455378
25.920033333333336,165.62988505747126
25.952066666666667,165.5995423340961
25.99996666666667,165.716091954023
26.03206666666667,165.2338251986379
26.0641,165.76736111111111
26.09606666666667,165.72850678733033
26.127933333333335,165.1295045045045
26.1601,164.89564220183487
26.192233333333334,165.74031890660592
26.22403333333333,166.27240977881257
26.25616666666667,165.06157354618017
26.288133333333334,164.93088071348942
26.3202,165.27027027027026
26.368233333333336,165.26978818283166
26.400033333333333,164.8198403648803
26.432100000000002,165.38015607580826
26.464033333333333,165.74379232505643
26.496166666666667,165.67505720823797
26.528000000000002,165.85585585585585
26.560000000000002,165.78074245939675
26.592066666666668,165.5711060948081
26.624166666666667,165.33370786516855
26.656166666666667,165.8574635241302
26.688066666666668,165.18041804180416
26.736033333333335,165.50991831971993
26.76816666666667,164.9771167048055
26.800033333333335,165.375
26.8322,165.27898966704936
26.86406666666667,165.96767001114827
26.89606666666667,165.78716216216216
26.928033333333335,165.59796149490376
26.960133333333335,165.32432432432432
26.991933333333336,165.1029748283753
27.024033333333335,165.4881087202718
27.072033333333334,165.4552752293578
27.104066666666668,165.7811111111111
27.136100000000003,164.88541666666666
27.168133333333333,165.14722536806343
27.200000000000003,164.84143518518516
27.232033333333334,164.72914285714288
27.264133333333334,164.9634703196347
27.296033333333334,165.692750287687
27.32796666666667,166.25589225589226
27.360000000000003,166.0
27.392166666666668,165.41564245810054
27.4401,166.49211711711712
27.472133333333336,166.30639730639732
27.504033333333336,165.3291995490417
27.536,165.11817168338908
27.568133333333336,164.41924398625432
27.600033333333336,165.32026875699887
27.632,164.33295324971493
27.664166666666667,164.93422519509477
27.696033333333336,164.94202898550725
27.728166666666667,164.60045662100455
27.760033333333336,165.17587373167981
27.807933333333335,164.91146424517592
27.8399,164.7578125
27.872033333333334,164.7152466367713
27.90416666666667,164.4878048780488
27.936200000000003,164.93507972665148
27.96806666666667,164.77146171693735
28.0001,164.71896162528216
28.032133333333334,164.78359908883826
28.0641,164.80296127562642
28.096033333333335,164.86966551326412
28.144066666666667,164.78619153674833
28.176000000000002,164.60640732265446
28.208000000000002,164.84027777777777
28.240133333333336,164.38628571428572
28.272066666666667,164.91294387170677
28.304066666666667,164.99427917620136
28.335966666666668,164.4506880733945
28.3682,165.15730337078654
28.399966666666668,164.99082568807341
28.432166666666667,164.77235772357724
28.464100000000002,165.46457607433217
28.5121,165.29205607476635
28.5442,165.5474040632054
28.576033333333335,165.1139954853273
28.608033333333335,164.813769751693
28.64006666666667,164.5629290617849
28.67216666666667,164.80091533180777
28.70406666666667,164.82298850574713
28.736033333333335,164.97826086956522
28.76806666666667,165.09545454545454
28.8001,165.00346020761245
28.83206666666667,165.12814645308924
28.88013333333333,165.1203271028037
28.912100000000002,165.09639953542393
28.944133333333333,165.627539503386
28.976066666666668,165.6120092378753
29.008266666666668,165.2383654937571
29.040033333333334,164.66742596810934
29.072033333333334,165.19481981981983
29.103933333333334,165.57013574660635
29.136066666666668,164.7288329519451
29.168000000000003,164.94279176201374
29.2162,164.98183881952326
29.247966666666667,165.0224719101124
29.279966666666667,164.86332574031888
29.3121,164.54868270332187
29.3441,164.41762013729976
29.376066666666667,164.84085778781036
29.4081,164.8164924506388
29.440066666666667,164.76403207331043
29.472133333333336,165.10045662100455
29.503966666666667,164.59153318077804
29.536033333333336,164.8084378563284
29.584133333333334,165.3318284424379
29.616033333333334,164.94269005847954
29.648133333333334,164.80434782608697
29.67996666666667,164.9123414071511
29.712,164.8340961098398
29.744,165.1121281464531
29.77606666666667,164.83179723502303
29.80816666666667,164.60681818181817
29.84,164.75977011494254
29.871933333333335,164.36941964285714
29.90426666666667,165.35395189003438
29.952,165.13945578231292
29.983966666666667,165.20958751393533
30.016033333333336,164.79842342342343
30.047966666666667,164.40159271899884
30.080166666666667,165.31399317406144
30.112066666666667,165.08536585365854
30.144000000000002,165.78716216216216
30.176066666666667,165.07894736842104
30.208166666666667,164.339519650655
30.240166666666667,164.56648044692736
30.28806666666667,164.43240223463687
30.320033333333335,165.007700770077
30.352,164.94202898550725
30.384,164.6921322690992
30.4161,164.8684210526316
30.448133333333335,164.87799315849486
30.48,164.8925339366516
30.512,165.50113122171948
30.54416666666667,165.88400900900902
30.57606666666667,165.3854047890536
30.608033333333335,165.45298165137615
30.656066666666668,165.61904761904762
30.688000000000002,165.44482758620688
30.720133333333333,165.5493612078978
30.752133333333333,165.45556805399326
30.784100000000002,165.1568848758465
30.816100000000002,164.74266365688487
30.848066666666668,164.76390465380248
30.880000000000003,164.7433831990794
30.912066666666668,164.96049661399547
30.944033333333334,164.77727272727273
30.976166666666668,165.17117117117118
31.02406666666667,165.11261261261262
31.056133333333335,165.07945516458568
31.0881,165.19655172413792
31.120033333333335,165.1567944250871
31.152033333333335,165.18556701030928
31.184166666666673,166.07972665148063
31.216,165.68072976054734
31.2481,165.6442417331813
31.28,165.9367816091954
31.312133333333335,165.479815455594
31.360133333333334,165.14022988505747
31.392033333333334,165.00464576074333
31.423933333333334,164.8193041526375
31.456033333333334,164.9231651376147
31.488266666666668,165.49436936936937
31.520166666666668,165.71333333333334
31.55206666666667,165.0634371395617
31.584133333333334,165.040369088812
31.616133333333334,164.91782407407408
31.64806666666667,165.25225225225225
31.680100000000003,165.36902050113895
31.727966666666667,165.3066361556064
31.76,164.51916757940853
31.791933333333336,164.94660734149053
31.824,165.31939605110338
31.8561,165.71719457013577
31.888033333333336,164.65060240963854
31.920033333333336,164.7043673012318
31.952133333333336,165.50800915331808
31.984033333333336,165.19724770642202
32.01616666666667,164.99888765294773
32.04806666666667,164.9358108108108
32.095933333333335,164.58758314855876
32.128,164.03854625550662
32.160066666666665,165.5214521452145
32.192,165.50170648464163
32.2241,164.86373873873873
32.256166666666665,165.2641723356009
32.2882,164.9977011494253
32.32006666666667,166.3428899082569
32.352000000000004,164.81890660592254
32.384166666666665,165.35033259423503
32.43206666666667,165.09385474860335
32.4641,164.55902777777777
32.49606666666667,165.12415349887132
32.528,165.36111111111111
32.56003333333334,165.8206650831354
32.59213333333334,165.1435132032147
32.62406666666667,165.10913140311803
32.656,164.80365296803652
32.688,165.43218390804597
32.72016666666667,165.7793103448276
32.75206666666667,164.94853801169592
32.8001,165.20184544405998
32.832,165.3656036446469
32.86403333333333,165.080738177624
32.896166666666666,165.1874285714286
32.92796666666667,165.29555555555555
32.960033333333335,165.78801843317973
32.991933333333336,166.3125
33.024166666666666,166.1315789473684
33.05616666666667,166.12814645308924
33.08793333333333,166.03318077803203
33.136,165.2888888888889
33.168,164.6643274853801
33.1999,165.04503464203233
33.23213333333334,165.34047350620068
33.263933333333334,165.76436781609195
33.29606666666667,165.18505747126437
33.3281,165.7511415525114
33.36013333333334,166.31603229527104
33.392,166.67529411764704
33.42393333333334,166.20022753128555
33.456066666666665,165.50398179749715
33.5041,166.31314285714288
33.53616666666667,166.22196796338673
33.568133333333336,166.07545045045046
33.59996666666667,165.94508009153319
33.632000000000005,166.11692650334075
33.66413333333333,166.0797752808989
33.69603333333333,165.83835005574136
33.728100000000005,165.83181818181816
33.7601,165.89651293588304
33.79206666666667,165.52
33.824133333333336,166.03273137697516
33.872166666666665,165.90656284760846
33.904066666666665,165.46196868008948
33.93606666666667,165.7898789878988
33.968133333333334,165.50328227571114
34.00013333333334,165.03225806451613
34.032066666666665,165.9488888888889
34.064033333333334,165.8823529411765
34.0961,165.89666666666668
34.12813333333334,165.78197997775305
34.160066666666665,166.2117117117117
34.20793333333334,165.05983889528193
34.24,165.543429844098
34.2719,165.38579234972678
34.30406666666667,165.13028953229397
34.3361,165.94706559263523
34.36796666666667,165.76809954751133
34.39996666666667,166.09111361079866
34.43216666666667,166.01029748283753
34.46406666666667,166.27231638418078
34.49606666666667,166.25764192139738
34.52813333333334,166.12624584717608
34.576,165.77455357142856
34.608133333333335,165.6251415628539
34.640100000000004,166.875
34.67203333333333,167.072625698324
34.704,166.9956043956044
34.736066666666666,166.3300110741971
34.768166666666666,166.0353200883002
34.79996666666667,166.23654708520178
34.832033333333335,167.07692307692307
34.8641,166.27313266443701
34.896233333333335,166.09761634506242
34.94413333333333,166.53734671125974
34.97616666666667,166.43736263736264
35.00806666666667,166.13154960981046
35.040033333333334,166.2359550561798
35.07213333333333,166.13377926421404
35.10406666666667,165.8783482142857
35.13596666666667,166.2367256637168
35.167966666666665,165.97240618101546
35.2001,165.17165005537097
35.23206666666667,166.45546786922208
35.28013333333333,165.16168327796234
35.31206666666667,165.28236607142856
35.344,165.7316258351893
35.37596666666667,166.58437146092865
35.408233333333335,165.79621380846325
35.440000000000005,165.97767857142856
35.472033333333336,167.32450331125827
35.50403333333333,167.19541484716157
35.53616666666667,165.78097345132744
35.56796666666667,166.9088888888889
35.600033333333336,165.47928331466966
35.64816666666667,166.17391304347825
35.67993333333333,166.02549889135256
35.71216666666667,165.23678414096918
35.74406666666667,166.2931995540691
35.7761,164.9457364341085
35.8081,165.39537444933922
35.84016666666667,165.21988950276244
35.87213333333334,165.86742857142858
35.904066666666665,165.4399551066218
35.936033333333334,165.21937639198217
35.9681,165.44022346368715
36.0159,165.36525612472158
36.0482,165.4290502793296
36.08,165.43207126948775
36.112033333333336,165.96715741789356
36.144,165.2319004524887
36.17616666666667,165.87416481069042
36.208133333333336,165.99443207126947
36.24006666666667,165.18100558659216
36.27193333333334,165.5131004366812
36.30416666666667,166.4212328767123
36.35203333333334,165.29753914988814
36.38406666666667,166.40313549832027
36.4159,165.6644370122631
36.448,166.6844494892168
36.4801,166.5
36.511900000000004,166.53956043956043
36.544000000000004,165.89420935412025
36.576,165.91409691629957
36.608200000000004,165.8641425389755
36.640166666666666,165.8535519125683
36.672000000000004,166.02510917030565
36.71993333333334,167.02333333333334
36.751933333333334,166.64994425863992
36.78410000000001,165.8710407239819
36.81603333333334,166.52702702702703
36.8479,165.727868852459
36.88003333333334,165.82841530054645
36.91193333333334,166.08278145695365
36.94416666666667,165.83461117196057
36.9761,165.6581005586592
37.00803333333334,166.74916387959865
37.03993333333334,165.58764044943823
37.08806666666667,165.76726057906458
37.120133333333335,165.73519553072623
37.15213333333333,165.76280623608017
37.18416666666667,167.25218340611352
37.21606666666667,166.14285714285714
37.248200000000004,166.88738738738738
37.28,165.9576837416481
37.31206666666667,166.44358407079645
37.344166666666666,165.89289617486338
37.37623333333333,165.6510590858417
37.424033333333334,165.4169381107492
37.45606666666667,166.4798206278027
37.487966666666665,165.57015590200444
37.52003333333334,165.90690032858708
37.55206666666667,166.25632563256326
37.58416666666667,165.56404494382025
37.616033333333334,165.6725082146769
37.64803333333334,167.14960629921262
37.67993333333333,166.87402452619844
37.7121,166.63428571428574
37.74413333333334,166.56236080178172
37.79216666666667,165.94097995545656
37.8241,166.00893854748603
37.856100000000005,166.10146561443065
37.888200000000005,167.12597547380156
37.92016666666667,167.12570781426956
37.95203333333333,167.26795895096922
37.984033333333336,166.9547038327526
38.0161,166.02134831460677
38.04816666666667,165.8273942093541
38.08006666666667,166.36939010356733
38.112033333333336,166.57810718358039
38.160066666666665,166.45701357466064
38.191966666666666,165.05758582502767
38.224133333333334,165.41676234213548
38.255966666666666,164.92013498312713
38.288000000000004,165.83406113537117
38.320100000000004,166.125
38.35216666666667,166.33071748878925
38.384100000000004,166.07792207792207
38.416066666666666,166.32349602724176
38.44806666666666,165.8194748358862
38.49596666666667,166.56458797327394
38.52806666666667,166.24860646599777
38.5599,166.19509476031214
38.592,166.09921962095873
38.62403333333334,166.08690744920992
38.6562,166.43429844097994
38.6881,166.56699889258027
38.72003333333333,166.30454042081948
38.752,166.9901098901099
38.78426666666667,166.523595505618
38.8161,166.46330777656078
38.86416666666667,166.51508379888267
38.89606666666667,166.0066371681416
38.928066666666666,166.31215772179627
38.959966666666666,166.14587973273942
38.99213333333334,166.69914346895075
39.02406666666667,166.69287991498405
39.05616666666667,166.36695278969958
39.08806666666667,166.31803278688525
39.120200000000004,167.14615384615385
39.15213333333333,166.95243362831857
39.1841,166.03156708004508
39.232,165.99449944994498
39.26403333333334,166.09666666666666
39.29616666666667,165.75946547884186
39.328,166.08612975391497
39.36,166.44137168141592
39.391933333333334,166.80613362541072
39.4241,166.69213973799125
39.45616666666667,167.22172452407614
39.48816666666667,166.82882882882882
39.5201,166.85454545454544
39.568000000000005,167.00338600451465
39.59993333333333,167.3688792165397
39.63216666666667,166.8851203501094
39.664033333333336,166.3899441340782
39.696000000000005,165.80357142857142
39.728100000000005,166.73021181716834
39.7601,166.8189944134078
39.792033333333336,166.7039106145251
39.823933333333336,166.61358574610244
39.85606666666667,166.65294771968854
39.888200000000005,165.94555555555556
39.9361,166.11135857461025
39.968066666666665,165.72686733556299
40.000033333333334,167.06117908787542
40.03203333333334,166.97508493771235
40.0642,166.90011223344558
40.0961,166.90697674418604
40.12806666666667,167.50441501103754
40.16003333333334,166.20712694877506
40.1922,166.17218543046357
40.22416666666667,166.22398190045251
40.255966666666666,166.9156214367161
40.30406666666667,166.73927392739273
40.3361,166.36607142857142
40.368100000000005,166.3203125
40.400133333333336,166.44088397790057
40.432,166.52578475336324
40.464,166.34002229654402
40.49603333333334,166.3658536585366
40.52806666666667,166.50993377483445
40.56,165.75896860986546
40.592,165.98988764044944
40.64,166.53699551569505
40.67196666666667,166.8787878787879
40.704033333333335,167.56286043829297
40.73616666666667,166.15937149270485
40.768033333333335,165.8961325966851
40.8001,165.5909090909091
40.832166666666666,165.96989966555185
40.86413333333333,166.72459016393444
40.896033333333335,166.56113537117903
40.928066666666666,166.60087719298244
40.96013333333334,166.66813671444322
41.00816666666667,166.91814159292036
41.040033333333334,166.79605263157893
41.07203333333334,166.74139844617093
41.1039,167.03603603603602
41.13596666666667,167.11393805309734
41.16813333333334,166.82179341657206
41.2,166.16132596685085
41.23213333333334,166.8411111111111
41.26406666666667,166.24972004479284
41.29616666666667,165.71460423634338
41.34413333333333,165.24303232998884
41.376000000000005,167.27083333333331
41.40813333333333,165.78706800445931
41.44003333333333,166.14537444933922
41.472166666666666,166.32349726775956
41.504200000000004,166.41261061946904
41.53593333333333,166.62307692307692
41.56816666666667,166.64849833147943
41.600100000000005,166.9617903930131
41.63196666666667,166.4601092896175
41.664100000000005,166.79039301310044
41.711933333333334,166.5964325529543
41.7441,166.46768893756845
41.7761,165.92196209587513
41.808233333333334,166.03121516164995
41.840133333333334,165.92696629213484
41.872033333333334,166.1937639198218
41.904133333333334,166.02317880794703
41.9362,167.33256880733947
41.96796666666667,167.2841163310962
42.0,167.09060402684563
42.032,166.89520624303233
42.08003333333333,166.97522522522522
42.11216666666667,165.97101449275362
42.144000000000005,166.5931263858093
42.176033333333336,166.49321266968326
42.208000000000006,166.79510022271714
42.24013333333333,166.6420581655481
42.272133333333336,166.4876404494382
42.30406666666667,166.45373467112597
42.3361,166.6566332218506
42.36813333333333,166.49107142857142
42.416000000000004,165.4578177727784
42.44813333333334,166.0154355016538
42.480000000000004,167.16053511705687
42.512,166.1015625
42.54403333333334,166.9103825136612
42.57613333333334,166.1885775862069
42.60803333333334,167.31803278688525
42.640033333333335,166.16592427616925
42.672000000000004,166.73089700996678
42.7042,166.14331210191082
42.736000000000004,166.4465270121279
42.78406666666667,166.826280623608
42.815933333333334,166.46067415730337
42.84806666666667,166.561190738699
42.8801,166.42140468227424
42.91206666666667,166.14955357142856
42.94413333333333,166.16483516483515
42.97606666666667,164.98702702702704
43.00813333333333,165.78390297684675
43.0401,165.99114064230344
43.07206666666667,166.4407894736842
43.10413333333334,166.18080357142856
43.15196666666667,166.41045606229144
43.184000000000005,166.3187772925764
43.216166666666666,166.0556792873051
43.24796666666667,166.4944812362031
43.279900000000005,166.77765486725664
43.31203333333333,165.5300113250283
43.344100000000005,166.5603448275862
43.37603333333333,166.88137472283813
43.40813333333333,167.10650224215246
43.4401,166.77914798206277
43.48793333333334,166.23664122137404
43.5201,165.4828349944629
43.5521,167.19890710382515
43.58403333333334,167.42935982339955
43.616,166.63370786516856
43.648133333333334,167.24212812160695
43.67993333333333,166.88092613009923
43.712,166.7899441340782
43.744033333333334,166.3701226309922
43.776133333333334,166.67112597547379
43.80816666666667,166.99887133182844
43.856100000000005,166.68197088465845
43.88803333333333,166.67381489841986
43.92006666666667,166.31543624161074
43.952000000000005,166.5436241610738
43.984233333333336,166.0222222222222
44.0161,166.6583514099783
44.04806666666667,167.44345898004434
44.08006666666667,165.97884187082406
44.11213333333333,166.81527936145952
44.1441,165.88288288288288
44.176033333333336,165.5139353400223
44.22403333333334,166.93046357615893
44.25606666666667,166.27303370786518
44.288133333333334,165.2568306010929
44.320166666666665,166.26227678571428
44.352066666666666,166.29910714285714
44.384166666666665,165.94059405940592
44.416133333333335,166.08618784530387
44.448,166.36383928571428
44.48003333333334,166.54960981047938
44.511966666666666,165.31045751633988
44.56,166.28699551569505
44.592,166.11706783369803
44.62416666666667,166.14065934065934
44.656099999999995,166.89922480620154
44.68806666666667,167.1328125
44.72013333333334,166.59890710382513
44.75216666666667,165.670011148272
44.78406666666667,165.74358974358975
44.81606666666667,165.97550111358575
44.84806666666667,166.38730853391684
44.88013333333333,166.1877828054299
44.9281,167.11610076670317
44.95993333333333,167.2216035634744
44.99213333333334,166.99433748584372
45.02396666666667,166.13463626492944
45.0561,165.91409691629957
45.088100000000004,166.99234972677596
45.119933333333336,166.4379157427938
45.152100000000004,166.53563474387528
45.18403333333334,166.87991266375545
45.21606666666667,167.02115812917594
45.248066666666666,166.4812362030905
45.2961,166.24414715719064
45.3281,166.75300546448088
45.3601,166.0720524017467
45.3921,166.36092715231788
45.42416666666667,166.35651214128035
45.45606666666667,166.06020066889633
45.48813333333334,166.29708520179372
45.52016666666667,166.5131004366812
45.552033333333334,166.0022271714922
45.58423333333334,165.96436525612472
45.632000000000005,165.8207126948775
45.664,165.94247787610618
45.69623333333334,165.43291995490415
45.72806666666667,166.20727673649395
45.76006666666667,165.72070098576123
45.792033333333336,165.8020134228188
45.82406666666667,165.86276715410574
45.85616666666667,165.82516703786192
45.88803333333333,165.8545861297539
45.92,165.3567447045708
45.95216666666667,166.25714285714287
46.0,166.70945945945945
46.03216666666667,166.39086859688194
46.064033333333334,165.89309576837417
46.096,166.4629213483146
46.1281,166.6168539325843
46.1601,166.38839285714286
46.192,166.44816053511704
46.224000000000004,165.936
46.25593333333334,165.97303128371087
46.288133333333334,166.31381215469614
46.32006666666667,165.64505494505494
46.3682,165.9429530201342
46.39993333333334,165.59167604049495
46.43203333333334,165.93243243243242
46.464133333333336,166.39955849889625
46.49603333333334,166.38218714768882
46.528,166.37272727272727
46.55996666666667,165.85968819599108
46.59216666666667,166.45635359116022
46.62413333333333,166.2192393736018
46.65593333333334,166.2265625
46.704100000000004,166.19068736141907
46.73596666666667,166.29765886287626
46.768100000000004,166.41008771929825
46.8001,166.28747203579417
46.83206666666667,166.32855567805953
46.864066666666666,165.2828729281768
46.89606666666667,166.32142857142856
46.92816666666667,166.43861607142856
46.960033333333335,166.47826086956522
46.992000000000004,166.25027685492802
47.02406666666667,166.41685393258427
47.071933333333334,166.33370535714286
47.1041,166.37946428571428
47.13626666666667,166.15315315315314
47.168033333333334,165.8109619686801
47.20006666666667,166.1705426356589
47.23216666666667,165.36842105263156
47.26406666666667,166.07505518763796
47.29613333333334,165.44004400440042
47.32803333333334,165.6566332218506
47.3602,166.33744394618833
47.3922,166.23237885462558
47.440133333333335,166.1015625
47.472,166.2463768115942
47.50403333333333,166.15470852017938
47.53596666666667,165.49609810479376
47.56816666666667,166.13522727272726
47.600033333333336,165.4983606557377
47.63206666666667,166.0546265328874
47.66406666666667,165.63347921225383
47.696133333333336,166.10852713178295
47.72816666666667,166.06570155902003
47.775933333333334,165.83517699115043
47.80793333333334,166.32596685082873
47.84,166.28222222222223
47.8721,166.45975744211688
47.904133333333334,165.99134199134198
47.936,166.12852311161217
47.967933333333335,166.68658399098084
48.00006666666667,166.52771618625277
48.03203333333334,166.16758544652703
48.06406666666667,166.2785087719298
48.096133333333334,166.02436323366555
48.144133333333336,166.11705685618728
48.176033333333336,166.2160087719298
48.20806666666667,165.56677890011224
48.24,165.66294642857142
48.27206666666667,165.31326644370122
48.30393333333333,165.1928651059086
48.33606666666667,165.48102678571428
48.368033333333344,165.50333333333333
48.39993333333334,166.07649667405764
48.43203333333334,165.60714285714286
48.46406666666667,164.90466101694915
48.512100000000004,165.75083056478405
48.544133333333335,165.5436464088398
48.57606666666668,165.88306010928963
48.60803333333334,165.79598662207357
48.64013333333334,165.81138392857142
48.67216666666667,166.1587982832618
48.704,165.75696767001114
48.735933333333335,166.41189189189188
48.76813333333334,166.63140311804008
48.79996666666667,166.98878923766816
48.8483,166.4108527131783
48.87996666666667,166.7191256830601
48.91206666666667,166.56441048034932
48.944,166.42163355408388
48.97613333333334,166.520624303233
49.00803333333334,166.19977678571428
49.0401,166.94803817603395
49.07206666666667,166.99550056242973
49.10416666666667,166.88677130044843
49.13606666666667,167.23522853957635
49.168,166.61794019933555
49.216033333333336,166.65736607142856
49.24796666666667,166.98390557939913
49.280166666666666,166.97127071823206
49.31203333333334,167.16757940854325
49.34406666666667,167.0033482142857
49.376133333333335,166.33853006681514
49.408166666666666,166.27502750275028
49.440133333333335,166.44766146993317
49.47206666666667,167.06006674082315
49.504133333333336,167.02723311546842
49.55196666666667,166.68426842684266
49.5841,166.20555555555555
49.61613333333334,166.74638487208009
49.64796666666667,166.50165380374864
49.6799,166.54355016538037
49.71196666666667,166.76470588235296
49.74406666666667,166.28068303094986
49.77606666666667,167.59672131147542
49.808033333333334,166.49620801733477
49.84003333333334,166.56923076923076
49.87213333333334,166.59061135371178
49.920100000000005,166.5655021834061
49.95203333333333,166.70240700218818
49.98396666666667,167.3962472406181
50.01603333333333,166.77630121816168
50.048100000000005,166.74157303370788
50.08003333333333,166.85049833887044
50.11193333333333,165.9539614561028
50.14396666666667,165.4551495016611
50.17616666666667,165.10939226519338
50.208200000000005,166.52510917030565
50.24,165.5230078563412
50.288000000000004,165.5960698689956
50.32,166.1861520998865
50.352000000000004,166.78372352285396
50.38416666666667,166.66109253065775
50.4161,166.95951859956236
50.448033333333335,167.2436040044494
50.48003333333334,166.796875
50.51213333333334,167.1297539149888
50.54396666666667,167.48085585585585
50.575966666666666,167.20975056689343
50.6239,167.19614512471657
50.65603333333333,166.93870601589103
50.6882,167.18609865470853
50.72016666666667,166.0688524590164
50.75196666666667,166.62946912242685
50.78410000000001,166.3637339055794
50.81616666666667,165.9933920704846
50.84813333333334,166.29753914988814
50.87996666666667,166.00899887514063
50.91206666666667,165.49209932279908
50.94413333333333,165.38580931263857
50.99196666666667,166.08552631578945
51.0242,166.06299212598427
51.056133333333335,167.2530933633296
51.087900000000005,166.913140311804
51.12003333333334,166.6725860155383
51.152166666666666,166.60765027322404
51.18396666666667,165.958751393534
51.21596666666667,166.06843267108167
51.248133333333335,166.99886234357223
51.280166666666666,166.44013683010263
51.31206666666667,165.5204872646733
51.3599,165.29014396456256
51.391933333333334,165.1749723145072
51.42406666666667,165.32356134636265
51.45616666666667,165.5475113122172
51.4882,165.81619256017504
51.52006666666667,165.82385120350108
51.55206666666667,165.40625
51.58416666666667,165.4140625
51.61613333333334,165.47550111358575
51.64806666666667,165.4243093922652
51.69603333333333,166.09453302961276
51.72806666666667,166.3143507972665
51.75996666666667,166.03575297941495
51.792033333333336,166.22532188841203
51.823933333333336,166.94760312151615
51.85613333333333,166.48030634573303
51.8881,166.72428884026257
51.92016666666667,165.83664459161147
51.952133333333336,166.570303712036
51.98406666666667,165.61581291759464
52.01616666666667,165.31422271223815
52.06413333333334,166.38563535911604
52.0962,165.82955771305285
52.128033333333335,166.00884955752213
52.16000000000001,166.504329004329
52.19206666666667,166.5005440696409
52.22416666666667,166.8109619686801
52.2561,167.01893095768372
52.2881,166.82202447163516
52.319966666666666,166.17508417508418
52.3521,166.95700110253583
52.384100000000004,166.98536036036035
52.432100000000005,166.5562987736901
52.464000000000006,166.07625272331157
52.49603333333334,166.66849015317285
52.528000000000006,166.40965207631876
52.56,166.86363636363637
52.59206666666667,166.7641196013289
52.624,166.77142857142857
52.65603333333333,166.69594594594594
52.68803333333334,166.67337807606265
52.720000000000006,166.54586129753915
52.768166666666666,167.06666666666666
52.79986666666667,166.55852842809364
52.832033333333335,166.39668508287295
52.86403333333334,166.84494382022473
52.896100000000004,166.6160616061606
52.92803333333334,166.53978494623655
52.960033333333335,166.8149779735683
52.99223333333334,166.73830734966592
53.024233333333335,167.08898776418243
53.056066666666666,166.02412280701753
53.088033333333335,166.5523704520397
53.136,166.56478405315613
53.16813333333334,166.2707182320442
53.2001,166.71806167400882
53.232,166.42950819672132
53.26403333333334,166.72204125950054
53.29606666666667,166.6853448275862
53.3281,166.59462365591398
53.360033333333334,166.61134903640257
53.39206666666667,167.12737430167596
53.42406666666667,166.5168918918919
53.456133333333334,166.27628635346755
53.504133333333336,166.24446902654867
53.53606666666667,166.56805399325086
53.56803333333334,166.37568455640744
53.59996666666667,166.43675675675675
53.632133333333336,166.54092920353983
53.664033333333336,166.4607843137255
53.6961,166.52245345016428
53.72806666666667,165.73759647188533
53.76016666666667,166.36612021857923
53.79216666666667,166.9098901098901
53.8401,166.54605263157893
53.872,166.3878453038674
53.90403333333334,166.12430632630412
53.93593333333334,165.90211345939935
53.96803333333334,166.70224719101125
54.00006666666667,166.30702702702703
54.03203333333334,166.22552255225523
54.064,166.72379912663754
54.09606666666667,166.50779510022272
54.128033333333335,166.56699889258027
54.160133333333334,166.6127232142857
54.2081,166.0077177508269
54.24006666666667,166.0916114790287
54.272133333333336,165.48950276243096
54.30413333333333,164.96966292134832
54.33603333333333,164.15282392026577
54.36806666666667,165.09481808158765
54.40006666666667,164.35254988913525
54.43206666666667,165.14144736842104
54.464133333333336,164.59034792368126
54.49606666666667,165.0912087912088
54.5281,165.3984461709212
54.57593333333334,165.0078125
54.60816666666667,164.94064949608062
54.64,164.39691289966925
54.672000000000004,164.17032967032966
54.70413333333334,164.40453074433657
54.73616666666667,164.4026996625422
54.76806666666667,164.04143337066068
54.799933333333335,165.46850828729282
54.832,165.44638949671773
54.86416666666667,165.73003374578178
54.9121,165.49060773480664
54.94396666666667,165.47978142076502
54.97606666666667,165.7032967032967
55.00803333333334,165.62138084632517
55.04013333333334,165.91901012373455
55.07206666666667,165.89571899012074
55.1041,166.19052863436124
55.135933333333334,165.76905829596413
55.168200000000006,165.85033259423503
55.20006666666667,165.73251942286348
55.23213333333334,165.90200445434297
55.28,166.14254143646411
55.312000000000005,166.0546265328874
55.344,165.34116331096197
55.376133333333335,165.79048697621747
55.408166666666666,165.38590203106332
55.44003333333334,166.2142857142857
55.472166666666666,166.22508398656214
55.504133333333336,165.53854875283446
55.536033333333336,165.46820175438594
55.56806666666667,165.54301675977652
55.59993333333333,166.0989876265467
55.6479,166.314253647587
55.68,166.52080989876268
55.7121,166.15205327413986
55.744033333333334,166.68911335578002
55.776133333333334,166.36511375947995
55.8082,166.60558659217875
55.84016666666667,165.71712707182323
55.8721,166.672131147541
55.90403333333334,165.5736434108527
55.93606666666667,166.6764705882353
55.984,166.85
56.016200000000005,166.0946094609461
56.048,166.63390928725704
56.080000000000005,166.62541806020067
56.11193333333333,166.6845039018952
56.144200000000005,166.60854893138358
56.175900000000006,166.47550111358575
56.208133333333336,166.58875413450937
56.23996666666667,166.20689655172413
56.2721,166.46322722283205
56.304100000000005,165.4647577092511
56.35206666666667,166.05519480519482
56.38393333333334,166.11922663802363
56.416000000000004,166.28664495114006
56.448233333333334,165.8480446927374
56.48003333333334,166.16157205240174
56.512033333333335,166.37795275590554
56.544000000000004,166.23666666666668
56.57616666666667,166.74182638105975
56.60816666666667,166.38351648351647
56.64006666666667,166.995599559956
56.672066666666666,166.85038503850384
56.72003333333333,166.359375
56.75206666666667,166.65666666666667
56.78423333333333,166.4792122538293
56.81603333333334,166.70620842572063
56.84806666666667,166.26994535519125
56.88003333333334,166.76174496644296
56.91213333333334,166.30146231721037
56.94396666666667,166.02104097452934
56.9761,166.28052805280527
57.008100000000006,166.44308035714286
57.056066666666666,166.3608017817372
57.08813333333334,166.06696428571428
57.1201,166.09652928416486
57.152033333333335,166.40832395950508
57.184066666666666,166.50276243093924
57.21613333333334,166.70131291028446
57.24803333333334,166.66592427616925
57.27996666666667,166.80313199105146
57.312000000000005,166.9614112458655
57.344100000000005,167.032694475761
57.37606666666667,167.05480984340045
57.4241,166.8140311804009
57.45606666666667,166.64175824175825
57.4879,166.58830146231722
57.52,166.6475138121547
57.55213333333334,166.79954954954954
57.5841,166.2265625
57.616033333333334,166.91995731056565
57.64806666666667,166.31828442437921
57.68013333333334,166.054203539823
57.71203333333334,166.0986842105263
57.75996666666667,165.80133185349612
57.791900000000005,165.62360801781736
57.82386666666667,165.93555555555557
57.856033333333336,166.0989010989011
57.888133333333336,165.79867986798678
57.92,166.1639344262295
57.952000000000005,166.43095768374164
57.98416666666667,166.4245076586433
58.01606666666667,166.86489479512736
58.04806666666667,166.8879120879121
58.08003333333333,166.84285714285716
58.1281,166.58415841584159
58.16000000000001,167.11012235817574
58.19213333333334,166.68526785714286
58.223933333333335,166.65098468271333
58.25593333333334,166.01569506726457
58.28803333333334,165.18453038674033
58.32006666666667,166.46902654867256
58.35206666666667,165.6096196868009
58.38406666666667,165.8494983277592
58.41603333333334,166.47666666666666
58.44826666666667,167.203125
58.49603333333334,165.9097909790979
58.5281,166.26209223847022
58.56006666666667,166.9921524663677
58.59206666666667,166.93736263736264
58.62413333333333,166.6890380313199
58.656099999999995,166.93421052631578
58.68813333333333,166.99891304347827
58.72006666666667,166.807903402854
58.75216666666667,167.2561797752809
58.78410000000001,166.83644346871571
58.832100000000004,167.3273340832396
58.864066666666666,167.6840390879479
58.896100000000004,167.3283261802575
58.92816666666667,166.72444444444446
58.960100000000004,166.87444444444444
58.992066666666666,166.9642857142857
59.024033333333335,166.87946428571428
59.056000000000004,166.384872080089
59.08806666666667,166.826859045505
59.1201,166.9911111111111
59.152100000000004,167.19821826280622
59.199933333333334,166.9303867403315
59.2321,167.72555555555556
59.264133333333334,167.14429530201343
59.29606666666667,167.355455568054
59.328100000000006,167.14048672566372
59.36006666666667,166.8529088913282
59.39216666666667,167.1316085489314
59.42416666666667,167.17861080485116
59.45616666666667,166.5241844769404
59.4881,166.36303630363037
59.52006666666667,166.68171557562076
59.568000000000005,166.06802721088437
59.6,165.99349945828817
59.632000000000005,165.93478260869566
59.66406666666667,166.63839285714286
59.696000000000005,166.67884828349943
59.72816666666667,166.8015350877193
59.76003333333334,166.14002205071665
59.792033333333336,166.4933628318584
59.8241,166.34933035714286
59.85626666666667,166.14790286975716
59.9041,166.4398200224972
59.936,166.14158305462652
59.9679,166.49446902654867
59.99996666666667,166.8759864712514
60.03216666666667,166.53007945516458
60.06406666666667,166.58765159867696
60.096133333333334,166.47704367301233
60.1281,166.18231441048033
60.1602,166.8963963963964
60.192233333333334,166.04
60.22416666666667,166.671875
60.27203333333333,166.2179203539823
60.304,167.10509209100758
60.33596666666667,167.0981461286805
60.368033333333344,166.3020134228188
60.400000000000006,166.1889502762431
60.432100000000005,166.07403314917127
60.464133333333336,166.01988950276245
60.49616666666667,165.8263274336283
60.52813333333334,166.00111607142856
60.56006666666667,165.84461709211988
60.59206666666667,166.20178372352285
60.640100000000004,166.5772727272727
60.67216666666667,166.27621195039458
60.70416666666667,166.02444444444444
60.73606666666667,165.953125
60.768033333333335,166.03583426651736
60.8001,166.5395033860045
60.832100000000004,166.28555678059539
60.864200000000004,166.70574971815105
60.89606666666667,166.82404371584698
60.92813333333333,166.67252747252746
60.97616666666667,166.5345982142857
61.00813333333333,166.81208053691276
61.040000000000006,165.99780461031833
61.07203333333334,166.73453318335208
61.10406666666667,166.6321709786277
61.136166666666675,166.99888143176733
61.1681,166.5730088495575
61.2,166.47634763476347
61.23193333333334,166.97045951859957
61.2642,166.91712707182322
61.29606666666667,166.30708661417324
61.344,165.87640449438203
61.3761,166.19444444444446
61.408100000000005,167.01833872707658
61.440133333333335,166.61744966442953
61.47213333333334,166.9116331096197
61.50403333333334,166.53253796095444
61.536033333333336,166.56040268456374
61.56816666666667,166.65276211950393
61.6,166.29424778761063
61.632000000000005,166.63329583802027
61.66393333333334,166.32444444444445
61.71203333333334,166.87739032620925
61.744033333333334,166.9821029082774
61.77626666666667,166.67139737991266
61.808033333333334,167.18576195773082
61.8401,167.11576626240353
61.87196666666667,165.95038588754136
61.904133333333334,166.261797752809
61.936,165.73786407766988
61.968,166.52380952380952
61.999900000000004,166.48192771084337
62.04786666666667,167.05524239007892
62.080000000000005,166.74804031354984
62.112100000000005,167.01434878587196
62.14403333333333,166.70267260579064
62.17606666666667,166.3155021834061
62.208200000000005,166.09080962800874
62.24013333333334,165.9419496166484
62.27193333333334,166.3960612691466
62.30406666666667,166.12665198237886
62.336200000000005,166.45625692137318
62.368033333333344,166.33879781420765
62.4161,165.89331896551724
62.44806666666666,166.51304347826087
62.479933333333335,166.93437152391547
62.512,167.00674915635548
62.54423333333334,167.00000000000003
62.576,166.2558886509636
62.60803333333334,166.50165745856356
62.64,166.7179487179487
62.6721,166.5430463576159
62.704100000000004,166.51351351351352
62.73606666666667,167.15167930660888
62.784000000000006,166.50337078651688
62.81606666666667,166.84154175588867
62.84813333333334,166.94201312910283
62.88,167.12363238512035
62.912000000000006,167.24807056229326
62.94396666666667,167.31783783783783
62.97626666666667,167.2513781697905
63.00823333333334,167.24104234527687
63.040033333333334,167.91212458286986
63.07206666666667,166.87705817782657
63.119933333333336,166.7952755905512
63.15206666666667,166.89410480349343
63.184200000000004,166.7199124726477
63.216,167.56415929203538
63.248000000000005,167.0448087431694
63.28,166.9142857142857
63.31216666666667,166.3608017817372
63.344033333333336,166.27133479212253
63.376000000000005,166.16373626373627
63.40813333333334,166.4502732240437
63.44016666666667,166.74090407938257
63.488200000000006,166.05464480874318
63.520133333333334,166.56048834628191
63.552,166.70753655793027
63.58403333333334,166.5
63.61616666666667,166.54616240266964
63.64803333333334,166.53555555555556
63.67996666666667,166.23704520396913
63.712133333333334,166.1318082788671
63.74413333333334,166.97231450719823
63.776133333333334,165.35589519650654
63.80806666666667,166.01952277657267
63.856,166.54790096878364
63.8881,166.35729847494554
63.92006666666667,166.4198645598194
63.952133333333336,166.40780911062907
63.98406666666667,166.33860045146724
64.01606666666667,166.16263736263735
64.04813333333334,166.0374862183021
64.08016666666667,165.58855885588557
64.11203333333334,166.45494028230186
64.14413333333334,166.96048298572998
64.19193333333334,167.64876957494405
64.2239,167.21844127332602
64.25613333333334,166.5956043956044
64.28823333333334,166.53406593406592
64.32000000000001,166.7662192393736
64.35210000000001,166.22742110990208
64.38423333333334,165.82796892341844
64.41606666666667,165.50382513661202
64.4481,165.9177777777778
64.48006666666667,165.57751091703057
64.51216666666667,165.78929765886286
64.55996666666667,166.39301310043666
64.5921,165.81637168141592
64.62403333333333,166.30962800875272
64.65593333333334,166.40513392857142
64.6881,165.99115044247787
64.72016666666667,166.2566371681416
64.75213333333333,167.14888888888888
64.78406666666667,166.83407079646017
64.81596666666667,166.46718576195772
64.84826666666667,166.63555555555556
64.88000000000001,166.05181918412347
64.92806666666667,165.85906040268455
64.95996666666667,165.69967707212055
64.992,166.38503253796097
65.02413333333334,166.63959955506118
65.05606666666667,165.97234513274336
65.0879,166.25
65.12006666666667,165.7164009111617
65.1521,166.0278706800446
65.18416666666667,165.7793952967525
65.21606666666666,166.18638392857142
65.26400000000001,166.51495016611295
65.29603333333334,166.69891304347826
65.328,165.29888888888888
65.36013333333334,166.6132596685083
65.39203333333333,165.42775229357798
65.424,165.41769316909296
65.45606666666667,165.19977678571428
65.48816666666667,165.81187010078386
65.52006666666666,165.3653631284916
65.55203333333334,165.36111111111111
65.58413333333334,165.645948945616
65.63206666666667,165.72907488986786
65.66413333333334,165.50832408435073
65.6961,165.5351170568562
65.72806666666666,165.50731158605177
65.76006666666667,165.02137232845897
65.79216666666667,165.2587176602925
65.8242,164.56122448979593
65.85613333333333,164.765625
65.88806666666667,165.0899001109878
65.92013333333334,166.10573678290214
65.96803333333334,166.00110253583242
66.00003333333333,166.04611923509563
66.03206666666667,165.99889380530973
66.06403333333334,165.5106861642295
66.09613333333334,165.83956043956044
66.1282,165.5139353400223
66.16006666666667,165.60224719101126
66.1921,165.45555555555555
66.2241,165.52237136465325
66.25623333333334,165.1752232142857
66.28806666666667,165.40604026845637
66.33606666666667,165.08527131782944
66.3679,166.46341463414635
66.39993333333334,165.52125279642058
66.43216666666667,165.63422818791946
66.46403333333333,165.76185101580134
66.49609999999998,165.93679458239276
66.52803333333334,166.71364653243847
66.56016666666667,166.68545659526492
66.59216666666667,166.5704622322435
66.62410000000001,166.50447427293065
66.65613333333333,167.0246360582307
66.70413333333333,166.74633596392334
66.736,166.6264367816092
66.7681,166.608793686584
66.79996666666668,167.5696902654867
66.83200000000001,166.55005624296965
66.86410000000001,166.47469066366705
66.89626666666668,166.3561797752809
66.9281,166.19182746878548
66.96013333333333,167.33065442020666
66.99206666666667,166.81978021978023
67.04003333333334,166.85272145144077
67.07213333333334,166.23959505061868
67.1041,167.2377232142857
67.1361,166.72767857142856
67.168,167.12721238938053
67.20003333333334,166.91814159292036
67.23190000000001,167.62236987818383
67.26403333333333,166.12935883014626
67.29603333333334,166.8460698689956
67.32816666666668,167.06808035714286
67.3602,166.35523385300667
67.40806666666667,167.36882546652032
67.44,167.48645720476705
67.47196666666667,167.17505470459517
67.50406666666667,167.28555798687088
67.53616666666667,167.04299889746417
67.56806666666667,167.1300992282249
67.60000000000001,166.54288939051918
67.63203333333334,166.41826381059752
67.6641,166.17971334068358
67.69613333333334,165.95222222222222
67.72803333333334,166.16048034934497
67.77606666666667,167.16609783845277
67.80810000000001,165.84198895027626
67.84016666666668,166.08695652173913
67.87213333333334,165.62625139043382
67.90413333333333,166.3160173160173
67.9361,166.12727272727273
67.96820000000001,166.52546045503792
67.99996666666667,165.8282608695652
68.03206666666667,165.78121546961327
68.06393333333334,166.06333333333333
68.11203333333334,166.3093363329584
68.14406666666667,166.12785388127853
68.17616666666667,166.11705685618728
68.20803333333332,166.5168539325843
68.23996666666667,166.75892857142856
68.272,166.21709786276716
68.3041,166.16962305986695
68.336,166.08577633007602
68.36813333333333,167.18694690265485
68.39996666666667,167.01452513966478
68.43216666666667,166.0843644544432
68.48,166.2718120805369
68.5119,165.89867841409693
68.54403333333333,165.94196428571428
68.57603333333334,165.73666666666668
68.60823333333333,165.9167591564928
68.64013333333334,165.89933628318585
68.6721,166.1925254813137
68.70413333333333,165.63387978142077
68.73616666666668,165.88254665203075
68.76806666666667,165.6655737704918
68.8,165.5420353982301
68.84803333333333,166.26222222222222
68.87996666666668,166.29119638826182
68.912,166.63444444444445
68.94403333333334,167.0288888888889
68.97606666666667,167.8050941306755
69.00806666666666,166.93258426966293
69.04006666666668,167.0375690607735
69.07213333333334,167.65804274465694
69.10416666666667,167.17750826901874
69.13606666666666,167.5819397993311
69.18406666666667,167.57971014492753
69.21600000000001,167.31751412429378
69.24810000000001,166.90950226244345
69.28003333333334,166.79522184300342
69.31203333333333,166.81653454133635
69.34403333333334,167.66963292547274
69.37603333333334,167.43406593406593
69.40823333333334,167.25366403607666
69.44003333333333,167.17105263157893
69.47203333333334,167.4188129899216
69.5042,167.22446689113357
69.55213333333333,167.67074527252504
69.58423333333334,166.86108048511576
69.61603333333333,167.78983050847458
69.6482,167.23991031390133
69.67996666666667,168.1036789297659
69.71216666666668,167.7545045045045
69.7441,168.01912260967381
69.77596666666668,167.89080459770113
69.80796666666667,167.8715909090909
69.84020000000001,167.90878378378378
69.8721,167.7840909090909
69.9201,168.15995647442872
69.95213333333334,167.54799107142856
69.98400000000001,168.1818181818182
70.01603333333334,168.03467561521254
70.048,168.13525498891352
70.08,168.0177383592018
70.11200000000001,167.7921225382932
70.14413333333334,168.35108695652175
70.17613333333334,168.03503184713375
70.20790000000001,168.46709129511677
70.25603333333333,168.86730360934183
70.288,169.22776572668113
70.32003333333334,168.71238938053096
70.35213333333334,167.54949944382648
70.38406666666667,167.05139186295503
70.41606666666667,167.42013129102844
70.44806666666668,167.36422413793105
70.48013333333334,167.80769230769232
70.51213333333334,167.6918103448276
70.54403333333333,168.3358613217768
70.57596666666667,167.88419913419912
70.62393333333334,167.73098125689086
70.65610000000001,168.02335928809788
70.68816666666667,167.62185792349726
70.72006666666667,167.30382513661203
70.75210000000001,168.38354700854703
70.78416666666666,167.91947769314473
70.81606666666667,168.38709677419354
70.84806666666667,167.92333333333335
70.88006666666666,167.77667766776676
70.91226666666667,167.58738938053096
70.94423333333334,168.29789590254705
70.99213333333334,168.0629834254144
71.0239,167.76577540106953
71.05593333333334,167.80515117581186
71.0879,168.23870967741937
71.12010000000001,168.73311184939092
