Time,Signal_1
0.0,147.59957401490948
0.03203333333333334,147.9735503560529
0.06416666666666666,145.7720207253886
0.09616666666666668,146.39979338842974
0.12806666666666666,147.19915254237287
0.16006666666666666,146.67924528301887
0.19223333333333334,146.34737923946557
0.22410000000000002,145.63730569948186
0.25610000000000005,146.31324004305705
0.30413333333333337,145.92993630573247
0.33616666666666667,146.54705274043434
0.3680666666666667,145.55497382198953
0.4003666666666667,145.53389830508473
0.4321666666666667,145.68698347107437
0.46413333333333334,145.93968253968254
0.4961666666666667,146.48973305954826
0.5283,146.41078838174275
0.5602333333333334,145.91012396694217
0.5922333333333334,146.31437435367116
0.6241333333333333,146.61506276150627
0.6721333333333334,146.7966804979253
0.7041666666666667,147.14300202839758
0.7360666666666666,146.54828326180257
0.7682,145.68821689259647
0.8001,145.77517802644965
0.8321666666666667,145.2575599582899
0.8642333333333334,146.01465968586388
0.8962,146.58549222797927
0.9282,146.42694300518133
0.9604333333333334,146.34683281412254
0.9922333333333334,145.08988764044943
1.0402666666666667,145.1807106598985
1.0721333333333334,146.6988577362409
1.1040333333333334,146.10575916230368
1.1361333333333334,145.99685863874348
1.1682000000000001,147.19873817034699
1.2001000000000002,147.1172839506173
1.2321333333333333,146.49533678756475
1.2640666666666667,146.23204994797086
1.2962666666666667,147.14834024896265
1.3281666666666667,147.2544502617801
1.3763,147.7256728778468
1.4081000000000001,147.330866807611
1.4402333333333335,147.2580310880829
1.4722666666666668,146.33908629441626
1.5041,146.2124735729387
1.5360999999999998,146.1321540062435
1.5681,146.2123430962343
1.6001666666666667,147.253112033195
1.6321666666666668,147.6070686070686
1.6641333333333335,146.91054313099042
1.6961666666666668,146.88877005347595
1.7440333333333333,146.4598765432099
1.7761,146.2880829015544
1.8083333333333333,145.24769703172979
1.8403,145.88489208633095
1.8722,146.02303664921467
1.9041666666666668,146.26841574167508
1.9363000000000001,146.22348094747682
1.9682333333333335,146.13160621761656
2.000166666666667,146.73120494335737
2.0322333333333336,147.72884811416924
2.0643333333333334,146.51639344262296
2.112166666666667,146.96109358569925
2.1442,146.5372340425532
2.1761333333333335,145.9275053304904
2.2082,146.39387539598732
2.2403333333333335,146.70281543274245
2.2722,146.24895833333332
2.3042000000000002,146.79979035639414
2.336266666666667,146.5361570247934
2.3683,146.62473572938688
2.4003666666666668,147.82396606574764
2.4482666666666666,146.92706131078225
2.4801,147.54261057173676
2.5120666666666667,147.61192468619245
2.5442333333333336,146.52854122621565
2.5762666666666667,145.88417786970012
2.6082,145.63589743589745
2.6401000000000003,146.13395638629282
2.6721333333333335,146.02100840336135
2.7043666666666666,145.35084033613444
2.7362333333333333,145.35429769392033
2.7682333333333333,145.65991471215352
2.8161333333333336,144.77011494252875
2.8481666666666667,146.04112554112555
2.880266666666667,146.71058091286307
2.9123,145.59917780061664
2.9441,146.60696008188333
2.9760666666666666,147.05555555555557
3.0083,146.10240334378267
3.0402,146.3578838174274
3.0722333333333336,146.0441478439425
3.1041333333333334,145.97314049586777
3.1522333333333337,145.41481481481483
3.184066666666667,145.66101694915255
3.2161333333333335,146.23624595469255
3.248266666666667,146.62877997914495
3.2801666666666667,146.87042842215257
3.3121,146.67668393782384
3.3442000000000003,146.42917997870077
3.3761,146.51724137931035
3.4082000000000003,146.84535005224663
3.440266666666667,146.5119170984456
3.472366666666667,146.86694825765574
3.5203,145.46516393442624
3.552166666666667,145.68647540983608
3.5841000000000003,145.26959247648904
3.616166666666667,145.17972831765937
3.6482666666666668,145.62094240837698
3.6803333333333335,146.3584117032393
3.7121333333333335,146.61831275720166
3.7441666666666666,146.5621734587252
3.7761666666666667,146.04352331606216
3.8081333333333336,146.07941483803555
3.8403,146.6718587746625
3.8881666666666668,146.7409700722394
3.920166666666667,146.71784232365144
3.9522333333333335,145.5937823834197
3.984266666666667,146.73305084745763
4.016233333333333,147.00102564102565
4.0482000000000005,146.9819639278557
4.080233333333333,145.63386243386245
4.1122000000000005,146.07045215562565
4.1442000000000005,146.04607329842932
4.176166666666667,146.80189673340357
4.224033333333334,147.81191222570536
4.256233333333333,147.34427966101694
4.2882,147.11298838437168
4.320133333333334,147.7203302373581
4.3521,146.42827868852459
4.384133333333333,147.0708245243129
4.416333333333333,145.61909650924025
4.448300000000001,146.49211356466876
4.4802,146.5548589341693
4.512266666666667,146.75757575757578
4.544333333333333,146.35005224660398
4.592133333333334,146.24033437826543
4.624233333333334,146.31712473572938
4.6561,146.8085977482088
4.688266666666667,147.9516129032258
4.720233333333334,147.88970588235293
4.7523333333333335,147.05608465608466
4.7842,148.27070063694268
4.816166666666667,149.45398138572907
4.8483,149.04921465968587
4.8804,148.7699481865285
4.912166666666667,148.27253886010362
4.960366666666667,148.29999999999998
4.992166666666667,148.7415036045314
5.024166666666667,148.51209253417454
5.056266666666667,147.23316062176164
5.088033333333334,148.41290983606558
5.120233333333333,148.67424242424244
5.152200000000001,148.81615302869287
5.184266666666667,148.68602150537635
5.216233333333333,148.48305084745763
5.248266666666667,148.11252653927812
5.296200000000001,149.2112970711297
5.328233333333333,148.47897435897437
5.360133333333334,149.46202531645568
5.392233333333333,147.75978835978836
5.424133333333334,148.2529601722282
5.456166666666667,148.10052356020944
5.488133333333334,148.7767195767196
5.520166666666667,148.60851063829787
5.552266666666667,149.0614406779661
5.584133333333334,149.22198731501058
5.6162,148.93802521008402
5.6641,148.67084639498435
5.696433333333333,148.55497382198953
5.728366666666667,148.70292887029288
5.760166666666667,148.6867724867725
5.7922,148.11437565582372
5.824233333333334,147.67325702393342
5.8562,147.74066390041494
5.8882666666666665,147.91804979253112
5.920066666666667,147.85460251046024
5.9523,147.6317991631799
5.984233333333334,148.5695159629248
6.032233333333334,148.9155370177268
6.064033333333334,148.7679144385027
6.096133333333333,148.50760869565218
6.1282000000000005,149.03065539112052
6.160433333333334,148.77860169491527
6.192266666666667,148.96398305084745
6.224233333333333,148.9947033898305
6.256233333333333,148.3658280922432
6.2883000000000004,149.07019438444925
6.320200000000001,147.91605456453306
6.368033333333334,148.17091295116774
6.4002,147.6234309623431
6.432166666666667,147.6927966101695
6.464300000000001,147.8802966101695
6.496266666666667,148.92505353319058
6.528166666666667,148.4173640167364
6.560133333333334,149.15264797507788
6.592300000000001,149.16463414634148
6.6241,149.36165803108807
6.656166666666667,149.34504132231405
6.688133333333334,148.5701030927835
6.736066666666667,148.43839835728954
6.7681000000000004,148.76175869120655
6.8002,149.58748674443268
6.832333333333334,149.99790356394132
6.864166666666667,149.1917525773196
6.8963,149.10153846153847
6.928333333333334,148.3454356846473
6.960266666666667,147.760460251046
6.992233333333334,148.15289256198346
7.0242,148.84794086589227
7.056233333333333,149.4989451476793
7.104233333333334,148.48191489361702
7.136066666666667,149.64853556485355
7.168200000000001,149.09533898305085
7.2001,148.8801652892562
7.232166666666667,149.2179353493222
7.2643,149.43597560975613
7.296233333333333,149.77800407331975
7.328200000000001,150.2622950819672
7.360466666666667,150.06172839506175
7.392333333333334,149.5274949083503
7.4402,150.07983623336744
7.472166666666667,149.28528528528528
7.504133333333334,148.69578622816033
7.536233333333334,149.118407960199
7.568333333333333,150.59897959183675
7.6002,149.9535123966942
7.632166666666668,149.96823770491804
7.664333333333333,149.45968586387437
7.6963333333333335,150.25379170879677
7.728133333333334,149.62260343087792
7.7602,148.88696537678206
7.808233333333334,149.85517970401693
7.8403,150.17574511819117
7.872333333333334,149.71457905544148
7.904133333333334,150.82203389830508
7.936166666666667,150.4378947368421
7.9682,149.67038539553752
8.000333333333334,150.56276150627613
8.032433333333334,151.24242424242425
8.0641,150.1767109295199
8.096433333333334,151.62888665997994
8.128333333333334,151.35035750766087
8.1762,151.9382080329557
8.208266666666667,151.2002063983488
8.240233333333334,150.81694560669456
8.272066666666667,149.24541751527494
8.304166666666667,149.30334728033472
8.336266666666667,149.68619246861923
8.368133333333335,150.16527196652717
8.400066666666667,150.35401831129195
8.432133333333335,151.01147028154327
8.4642,149.96938775510205
8.512166666666667,150.3717816683831
8.544133333333333,149.2196589769308
8.5761,149.44665271966525
8.6082,149.4221991701245
8.640266666666667,149.49267782426776
8.6721,150.02212855637512
8.704166666666667,149.58368200836819
8.736233333333335,149.77903391572457
8.768333333333334,149.3747433264887
8.8003,149.8352450469239
8.832133333333333,149.88900634249472
8.880166666666668,148.93374108053007
8.912066666666668,150.54400848356312
8.944066666666668,149.4238341968912
8.976299999999998,149.13449691991786
9.0082,149.86924686192467
9.040233333333333,149.9393627954779
9.072233333333333,150.13678756476682
9.104266666666668,149.3903192584964
9.1362,149.52923076923076
9.1683,149.06438631790746
9.200166666666668,149.0922920892495
9.248133333333334,149.30232558139537
9.280166666666666,149.63801820020223
9.3123,149.90683229813666
9.344100000000001,148.9503042596349
9.3763,149.85232067510546
9.408233333333333,149.6417759838547
9.4402,149.34018499486126
9.472133333333334,149.76760563380282
9.504100000000001,149.61468812877266
9.5363,149.56338028169014
9.584133333333334,149.20570264765783
9.616233333333334,150.26104830421377
9.648133333333334,150.61396303901438
9.680166666666667,150.07357512953368
9.712266666666666,150.24922440537748
9.744233333333334,150.6044538706257
9.776033333333334,150.27320125130345
9.808333333333334,150.82645502645505
9.840233333333334,149.8722966014418
9.872366666666666,149.37525354969574
9.904166666666667,149.23511293634496
9.952233333333334,149.22507708119218
9.984066666666667,149.328125
10.016066666666667,149.53319919517105
10.048333333333334,147.89208633093526
10.080366666666666,147.2763561924258
10.112266666666667,148.37113402061857
10.144166666666667,146.8326612903226
10.176166666666667,146.50155763239874
10.208166666666667,145.69262295081967
10.2402,144.17252066115702
10.272266666666667,143.8193018480493
10.320166666666667,143.57707910750506
10.352166666666667,144.88598326359832
10.384266666666667,144.93661971830988
10.416266666666667,145.11729019211324
10.448166666666667,144.8128128128128
10.4802,145.61071789686554
10.5123,144.99586776859505
10.544066666666668,145.1683569979716
10.5761,146.82747603833866
10.608133333333333,146.5427698574338
10.656033333333333,146.0811654526535
10.688233333333335,146.6656282450675
10.7202,145.42901554404145
10.7523,144.4665981500514
10.784166666666668,145.43890020366598
10.8163,146.22187171398528
10.8483,145.6849894291755
10.8803,145.028125
10.912166666666668,145.04270833333334
10.9443,145.3844559585492
10.9762,145.7157569515963
11.0243,145.0945945945946
11.056033333333334,146.82712215320913
11.0881,146.4298969072165
11.120266666666668,146.2186495176849
11.1523,145.27542372881356
11.184133333333333,146.46639511201627
11.216233333333333,145.91987513007285
11.248366666666668,145.13989637305698
11.280333333333333,146.16967126193003
11.312166666666668,145.48212461695607
11.360433333333335,145.5057471264368
11.392266666666668,145.13084112149534
11.424133333333334,145.8951965065502
11.4563,146.32653061224488
11.488066666666667,145.63471778487755
11.520233333333334,146.11858974358975
11.552333333333333,146.06382978723406
11.584266666666668,147.37396694214877
11.6163,145.3600844772967
11.648066666666667,146.60416666666666
11.680233333333334,145.22008113590263
11.728100000000001,146.11850311850313
11.760266666666666,145.86886993603412
11.792166666666667,145.80314136125656
11.824066666666667,145.33299075025695
11.856166666666667,144.5973496432212
11.888166666666667,144.90112130479105
11.920233333333334,144.82709807886755
11.952333333333334,145.59660297239915
11.984166666666667,145.39895833333333
12.016200000000001,145.94834710743802
12.048333333333334,144.89613034623216
12.096266666666667,144.5424430641822
12.128266666666667,145.22095435684648
12.160433333333334,145.16155419222906
12.192166666666667,144.81666666666666
12.224266666666667,145.0810810810811
12.256166666666667,144.6109979633401
12.288133333333334,145.2360824742268
12.320166666666667,145.27525773195876
12.352166666666667,144.91113381001023
12.384300000000001,146.00104712041886
12.432366666666667,146.18666666666667
12.4641,146.59490986214212
12.4961,145.7991631799163
12.528233333333334,146.1564185544768
12.560466666666667,146.25077081192188
12.5922,146.81419624217116
12.624166666666667,146.00410256410257
12.656233333333335,146.22988505747128
12.6883,146.57288481141694
12.7202,145.48553719008265
12.752266666666667,145.08784473953014
12.800233333333335,145.8465499485067
12.832133333333333,146.5442655935614
12.864233333333335,146.5282631038027
12.8963,147.06060606060606
12.928233333333335,145.96206533192833
12.960366666666667,146.99277605779153
12.992333333333335,146.64850976361768
13.0241,147.14553014553016
13.056233333333333,148.0203458799593
13.088266666666668,148.5249745158002
13.120333333333335,148.02298850574715
13.168066666666668,147.60020449897752
13.200166666666668,148.38585858585859
13.232333333333333,147.7669801462905
13.264133333333334,148.79447852760737
13.296133333333334,148.52106885919835
13.328266666666668,149.31237322515213
13.360366666666668,149.87006237006239
13.3922,149.36085626911316
13.424133333333334,150.05061983471074
13.4564,150.38699690402476
13.504233333333334,150.36105476673427
13.536133333333334,150.90927835051548
13.568066666666667,150.03048780487808
13.600233333333334,149.5085085085085
13.632200000000001,149.03115264797506
13.6643,147.89785495403473
13.696233333333334,146.8804573804574
13.728233333333334,147.8915537017727
13.7603,147.63598326359832
13.792233333333334,147.2821833161689
13.824200000000001,147.4174653887114
13.872100000000001,149.05801687763713
13.904100000000001,148.34207764952782
13.936133333333334,148.23388773388774
13.968333333333334,148.2063983488132
14.000166666666667,146.90400843881855
14.0321,148.01572327044025
14.064133333333334,148.46930280957338
14.096366666666666,147.87660944206007
14.128266666666667,147.83056133056135
14.160400000000001,146.7761033369214
14.192300000000001,147.51991614255766
14.2401,147.23347547974413
14.272333333333334,147.28121720881427
14.304133333333334,147.58368200836819
14.336233333333334,147.66247379454927
14.3682,146.93997856377277
14.400300000000001,147.0706751054852
14.432400000000001,147.1584984358707
14.464133333333335,148.31256490134993
14.4961,147.76507936507937
14.528300000000002,147.5037513397642
14.576066666666668,147.66811279826464
14.6082,146.8025343189018
14.64,147.7224008574491
14.672166666666667,148.08997955010227
14.704166666666667,146.3268242548818
14.7363,146.4973821989529
14.768166666666668,147.12058212058213
14.80026666666667,147.81262729124234
14.832233333333335,146.90332640332642
14.864233333333335,147.840885142255
14.896233333333335,147.53440860215053
14.9443,146.71061093247587
14.9761,147.90032154340835
15.0081,147.9407327586207
15.040266666666668,147.49676025917927
15.072233333333335,147.63805584281283
15.1042,148.3347280334728
15.136266666666668,147.2901554404145
15.1683,146.94560669456067
15.200366666666667,146.47340980187695
15.232133333333334,146.43248945147678
15.264133333333334,146.60337552742615
15.3122,145.5630341880342
15.344066666666667,146.83915343915345
15.376333333333333,146.71652719665272
15.4082,146.13660062565174
15.440233333333333,146.2550911039657
15.4723,145.99681190223166
15.5043,146.7859391395593
15.536233333333334,147.5123258306538
15.568266666666668,147.5537806176784
15.600266666666668,147.482905982906
15.648100000000001,147.66772151898732
15.680200000000001,147.14392324093816
15.712366666666668,147.4257322175732
15.744066666666667,147.11075612353568
15.776066666666667,147.01064962726306
15.808166666666667,148.33192389006342
15.840200000000001,147.7027027027027
15.872266666666668,147.2461695607763
15.904200000000001,148.86387995712755
15.936333333333334,148.7289029535865
15.968333333333334,148.69826707441388
16.016266666666667,148.41286307053943
16.0482,148.4281314168378
16.0802,148.45968586387437
16.112166666666667,147.86349206349206
16.144266666666667,146.32537960954448
16.176166666666667,147.0117021276596
16.208033333333333,147.68354430379745
16.2401,147.41761658031086
16.2723,146.74409044193217
16.304133333333333,148.17849686847597
16.336166666666667,147.6992561105207
16.3841,148.02757158006364
16.41626666666667,148.1910229645094
16.4483,147.47423764458463
16.48026666666667,148.5966386554622
16.51226666666667,148.44086021505376
16.54416666666667,147.89169295478445
16.57616666666667,148.11251314405888
16.608133333333335,147.0646186440678
16.640099999999997,146.81540084388183
16.6723,146.50797024442082
16.720233333333333,147.1279916753382
16.752133333333333,147.91054313099042
16.784200000000002,148.54228329809726
16.816100000000002,147.66322314049586
16.848266666666667,147.42348008385744
16.880166666666668,147.34750265674813
16.912233333333333,147.78256189451022
16.944066666666668,147.36289500509685
16.976133333333333,147.34533898305085
17.008200000000002,147.88053553038105
17.040266666666668,147.57737459978657
17.088333333333335,145.96198521647307
17.120233333333335,146.11239495798318
17.152266666666666,147.3002114164905
17.184133333333335,146.7981072555205
17.216266666666666,146.20459518599563
17.2483,147.65506329113921
17.2803,146.68381564844586
17.3122,146.41431670281997
17.344266666666666,146.4604700854701
17.376166666666666,147.26394849785407
17.408233333333335,146.1182212581345
17.456033333333334,147.42449841605068
17.4881,146.0032644178455
17.520266666666668,147.37525987525987
17.552466666666668,147.8384697130712
17.58416666666667,147.2483870967742
17.616266666666668,147.38796680497924
17.6482,146.4252386002121
17.680333333333333,146.53544973544973
17.71216666666667,147.35058078141498
17.7442,146.8870116156283
17.792133333333336,146.9978563772776
17.824033333333333,147.02231668437832
17.856266666666667,147.17070600632243
17.888166666666667,147.3176100628931
17.9201,146.9415515409139
17.952133333333336,146.9744680851064
17.984266666666667,146.97657082002132
18.016333333333336,146.5197860962567
18.0482,146.6578108395324
18.080166666666667,146.76054852320675
18.112333333333336,147.5749730312837
18.160133333333334,146.9767687434002
18.19233333333333,146.63141025641028
18.224133333333334,146.53974895397488
18.25616666666667,146.43037974683543
18.288233333333334,146.08826695371366
18.32016666666667,146.74789029535864
18.35206666666667,146.22375397667022
18.384133333333335,148.16773504273505
18.4162,148.35744680851064
18.44836666666667,147.3118971061093
18.4802,147.46891464699684
18.528266666666667,147.25284974093265
18.560100000000002,146.8968085106383
18.592100000000002,146.65708200212993
18.624233333333333,146.56656017039404
18.656233333333333,146.6751863684771
18.6883,147.38370846730976
18.720233333333333,146.7311827956989
18.752333333333333,146.6737288135593
18.784233333333333,147.1342494714588
18.816266666666667,147.16398713826365
18.864133333333335,147.08736842105262
18.8961,146.92171995589857
18.92856666666667,148.0347003154574
18.960433333333334,146.95233050847457
18.992166666666666,147.31092436974788
19.024166666666666,147.8665955176094
19.0562,147.59453781512605
19.0882,147.66317991631797
19.12016666666667,148.1328374070138
19.1521,148.08054393305437
19.184166666666666,147.24163179916317
19.232133333333334,147.87318087318087
19.264200000000002,147.43119266055047
19.296266666666668,147.70092497430628
19.3281,147.39624608967674
19.360233333333333,147.73575129533677
19.392333333333333,147.989604989605
19.424133333333334,148.6414708886619
19.456166666666668,147.53444676409185
19.488166666666668,146.67338282078475
19.520300000000002,146.79430379746833
19.568166666666666,147.05353319057818
19.6002,147.51763485477179
19.632033333333336,146.692225772098
19.6641,146.62156663275687
19.6961,146.69148936170214
19.728266666666666,146.4863445378151
19.7602,146.55602536997887
19.792233333333336,146.76494845360824
19.824166666666667,147.51160337552741
19.8563,147.18049792531122
19.888166666666667,147.2759706190976
19.936133333333334,147.56548856548858
19.968133333333334,147.1954498448811
20.00016666666667,146.76053442959918
20.0323,147.31600831600832
20.06416666666667,147.53676470588235
20.096233333333334,147.16168898043253
20.12816666666667,146.37525773195875
20.16036666666667,146.28148148148148
20.19206666666667,146.82944915254237
20.224133333333334,146.23037190082644
20.25616666666667,146.81600831600832
20.304133333333333,146.9367088607595
20.3362,147.20732984293195
20.368333333333336,146.7626208378088
20.400166666666667,146.66025641025644
20.432166666666667,145.81993569131834
20.464100000000002,146.87500000000003
20.496166666666667,147.61650992685477
20.528200000000002,147.93410041841003
20.560266666666667,148.24423480083857
20.592233333333333,146.24156118143458
20.640066666666666,147.4862579281184
20.672233333333335,147.19092827004218
20.704100000000004,146.9978448275862
20.736133333333335,147.5769230769231
20.768066666666666,147.1012658227848
20.80026666666667,146.44080338266386
20.8322,146.32037815126048
20.8641,146.64572605561276
20.896066666666666,146.66951871657756
20.9282,147.42993630573247
20.960333333333335,147.64853556485355
21.008266666666668,147.84835630965006
21.040200000000002,146.90860215053763
21.072200000000002,147.11566771819136
21.104100000000003,145.70943796394488
21.136300000000002,146.5388655462185
21.168233333333333,146.77978723404254
21.200233333333333,145.97601668404587
21.232133333333334,146.86058700209645
21.264300000000002,146.75499474237645
21.296100000000003,146.00315457413248
21.32806666666667,146.6549948506694
21.3762,146.3985200845666
21.408133333333335,146.51929092805005
21.440266666666666,146.23350785340315
21.472266666666666,146.6945337620579
21.504133333333336,147.81770833333334
21.536233333333335,148.4140461215933
21.568266666666666,148.4384858044164
21.600333333333335,147.0547798066595
21.632266666666666,147.63711340206186
21.664166666666667,146.98766700924975
21.712133333333334,147.05613305613306
21.7441,146.60385438972165
21.776133333333334,146.9482936918304
21.8082,147.07502569373074
21.8402,146.81570680628275
21.87216666666667,147.12602459016395
21.90426666666667,146.45569620253164
21.936133333333334,146.07317073170734
21.968133333333334,146.17391304347828
22.00016666666667,146.24683544303795
22.032333333333334,146.06465067778936
22.080233333333336,146.42872570194385
22.112133333333336,147.01588983050848
22.144133333333336,147.41770833333334
22.1761,147.46153846153848
22.208233333333336,147.64307381193126
22.240133333333333,146.83298755186723
22.272233333333336,147.58534031413615
22.304166666666667,148.01983298538622
22.3363,146.7459283387622
22.3683,147.55718782791186
22.4002,147.58333333333334
22.448033333333335,148.30434782608697
22.48016666666667,147.27690700104495
22.5121,146.8174186778594
22.5443,147.80204081632655
22.576133333333335,147.13247863247864
22.608233333333335,146.75473684210527
22.64006666666667,147.18480492813143
22.67226666666667,147.28418803418805
22.7042,146.79978700745474
22.7362,146.9694092827004
22.784100000000002,147.12619300106047
22.816166666666668,147.11501597444092
22.848166666666668,148.1109936575053
22.880266666666667,147.646420824295
22.912200000000002,146.74868559411146
22.944166666666668,147.01052631578946
22.976266666666668,148.31354166666665
23.008166666666668,147.48728813559322
23.040166666666668,146.38141025641028
23.072233333333333,146.79856115107913
23.104200000000002,147.35751840168243
23.152033333333335,147.1222797927461
23.1842,147.8409090909091
23.216166666666666,147.37300743889477
23.2482,147.13833157338965
23.2802,146.5359001040583
23.3123,147.14509394572025
23.3442,147.11168562564634
23.376133333333335,146.43350785340314
23.4082,147.291932059448
23.440233333333335,146.91205211726384
23.472333333333335,145.70464135021095
23.520166666666668,146.66666666666666
23.55216666666667,146.4952380952381
23.584133333333334,147.65853658536588
23.616200000000003,147.87272727272727
23.648266666666668,147.23991726990693
23.68016666666667,147.35421166306696
23.7121,147.56521739130437
23.744133333333334,147.42205726405092
23.7761,146.0688935281837
23.808266666666672,146.8760593220339
23.8561,146.50000000000003
23.888066666666667,147.72097976570822
23.92,146.9562433297759
23.952333333333335,146.49522799575823
23.984133333333336,146.95
24.0161,147.7539766702015
24.048166666666667,147.44714587737843
24.080266666666667,147.19032597266036
24.112166666666667,147.33439829605965
24.144133333333336,147.01806588735386
24.176133333333336,147.49731471535983
24.22406666666667,147.69247083775187
24.2563,147.2269807280514
24.28806666666667,146.91961414790995
24.320033333333335,147.41437632135307
24.352033333333335,148.13291139240505
24.38426666666667,148.0483701366982
24.416233333333334,146.84664536741215
24.44826666666667,148.08456659619452
24.4803,146.9
24.5123,147.75581395348837
24.5442,147.76293103448276
24.592266666666667,147.36781609195404
24.624133333333333,146.74789029535864
24.656233333333333,146.82743837084672
24.688200000000002,146.83192389006342
24.7203,146.4467391304348
24.752066666666668,146.71398305084745
24.784200000000002,146.0455991516437
24.816166666666668,147.18796992481202
24.848300000000002,146.8559670781893
24.880266666666667,147.03969957081546
24.928233333333335,147.4675876726886
24.9602,147.55614406779662
24.9922,146.95114345114345
25.024333333333335,147.28541666666666
25.05616666666667,147.25416666666666
25.088233333333335,146.7826086956522
25.1202,148.56517094017096
25.1523,147.74742268041237
25.1842,148.31464174454828
25.216166666666666,147.08658922914466
25.2482,146.79008438818565
25.296166666666668,146.6856540084388
25.32806666666667,146.88340336134453
25.360133333333334,146.79069767441862
25.392166666666668,146.6573275862069
25.42406666666667,146.53717277486913
25.456033333333334,146.48449197860964
25.488366666666668,147.49415515409137
25.520233333333334,147.6821052631579
25.552300000000002,147.57773109243698
25.584200000000003,147.77621621621623
25.616233333333334,147.81465517241378
25.664133333333336,147.36977491961414
25.696266666666666,146.86875
25.7282,147.33932346723046
25.760233333333336,147.0063424947146
25.792233333333336,145.51024811218986
25.824166666666667,145.8368017524644
25.856166666666667,145.95690607734807
25.888166666666667,146.18412348401324
25.920266666666667,145.45878524945772
25.952266666666667,146.15940488841656
26.00016666666667,146.52391073326248
26.032033333333334,146.24156118143458
26.064,146.76235541535226
26.09616666666667,147.90243902439025
26.12826666666667,146.96080508474577
26.160300000000003,147.58289885297185
26.192233333333334,147.3685344827586
26.224133333333334,147.19891304347826
26.2563,147.24248927038627
26.288133333333334,147.35494155154092
26.3202,147.2190889370933
26.368266666666667,147.26997840172788
26.400100000000002,147.13933547695606
26.432333333333336,147.01273885350318
26.464233333333336,147.0824295010846
26.496133333333333,148.0772486772487
26.528133333333333,146.796992481203
26.560366666666667,147.28249194414607
26.592200000000002,147.2357984994641
26.624133333333333,146.95886075949366
26.656200000000002,146.6033934252386
26.6883,146.31813361611879
26.736133333333335,146.00108695652173
26.76826666666667,147.2578947368421
26.800233333333335,146.53974895397488
26.83216666666667,146.70074547390843
26.8641,146.50702702702702
26.89626666666667,146.21794871794873
26.92836666666667,147.1833872707659
26.960333333333335,147.3569868995633
26.992133333333335,147.8956611570248
27.02426666666667,147.74742268041237
27.072333333333333,147.72814498933903
27.104000000000003,147.7010752688172
27.136066666666668,145.4125654450262
27.168266666666668,146.50912996777657
27.200233333333333,146.66631243358128
27.232266666666668,146.7870074547391
27.26406666666667,145.95991561181432
27.296133333333334,145.55495689655172
27.328266666666668,145.8860489882854
27.360133333333334,145.8457502623295
27.392200000000006,145.24421052631578
27.440133333333335,146.5663157894737
27.472166666666666,146.47573839662445
27.504133333333336,146.42105263157893
27.5362,146.35843054082716
27.5682,146.99147121535182
27.60023333333334,147.84329896907218
27.632266666666666,147.13389121338912
27.6643,146.76982378854626
27.696066666666667,145.93610223642173
27.7281,146.80769230769232
27.776033333333334,146.1271186440678
27.808133333333334,146.03492063492064
27.84016666666667,146.4665249734325
27.872133333333334,146.19979079497907
27.904133333333334,146.2995780590717
27.93606666666667,147.3403805496829
27.96826666666667,147.86048988285413
28.000233333333334,147.11087190527448
28.032233333333334,146.16950959488273
28.06416666666667,146.44432661717923
28.096300000000003,146.35782747603835
28.144033333333336,146.09443861490033
28.176166666666667,146.46573875803
28.208033333333336,146.10176531671857
28.240166666666667,145.4778481012658
28.272133333333336,145.7618069815195
28.304233333333336,145.91786447638603
28.336100000000002,147.190625
28.368266666666667,146.56125654450264
28.4003,146.91880341880344
28.43236666666667,146.2136842105263
28.464133333333336,146.04135737009545
28.51226666666667,147.47114375655823
28.5441,146.59009483667018
28.576133333333335,146.5346232179226
28.60826666666667,147.48333333333332
28.640333333333334,147.03923541247485
28.672233333333335,147.02400835073067
28.70416666666667,146.0441334768568
28.7363,147.42694300518133
28.76836666666667,147.65911431513902
28.80006666666667,146.9945652173913
28.848233333333333,146.6354056902002
28.880000000000003,146.55897980871413
28.912133333333337,147.59384941675506
28.944233333333333,147.5326902465166
28.976100000000002,146.76979166666666
29.008166666666668,146.66108786610877
29.040133333333333,146.78118393234672
29.072466666666667,148.07430340557275
29.104166666666668,147.39432176656152
29.136166666666668,145.4300847457627
29.168266666666668,145.60823653643084
29.2161,147.05590717299577
29.248333333333335,146.6603970741902
29.28016666666667,146.2875
29.312133333333335,147.0811088295688
29.344133333333335,148.06540084388183
29.376166666666666,147.41200828157352
29.408166666666666,147.39708939708942
29.440033333333336,146.52341311134236
29.472066666666667,146.4418604651163
29.504166666666666,147.5877378435518
29.5363,146.5358606557377
29.584233333333334,146.91263157894736
29.616100000000003,146.1521298174442
29.648233333333334,146.97817047817048
29.680133333333334,146.796875
29.712333333333333,147.50994764397907
29.74416666666667,146.95407098121083
29.77616666666667,146.9459172852598
29.80816666666667,146.3005347593583
29.840366666666668,146.74583333333334
29.872200000000003,146.1892177589852
29.920133333333336,146.1467793030623
29.952066666666667,146.52885624344177
29.984133333333336,146.9484752891693
30.016300000000005,147.44096133751307
30.0482,145.89556962025316
30.080266666666667,147.3044397463002
30.112066666666667,146.5616580310881
30.144166666666667,146.6754756871036
30.176166666666667,146.2330827067669
30.208233333333336,146.9484752891693
30.240266666666667,146.5883597883598
30.28803333333334,147.3017875920084
30.32,145.41095890410958
30.352300000000003,146.64262990455993
30.38416666666667,147.41009463722398
30.416233333333334,147.76875
30.448133333333335,147.32870864461046
30.4803,146.8628691983122
30.51206666666667,147.07263157894735
30.5441,147.0377969762419
30.5761,146.11542497376706
30.608233333333335,146.67020148462356
30.656166666666667,146.63097713097713
30.688133333333333,146.6283566058002
30.720233333333336,146.3386075949367
30.752166666666668,145.46666666666667
30.784266666666667,146.88387096774193
30.816366666666667,146.73276776246024
30.848166666666668,147.11869747899158
30.880333333333336,147.13469827586206
30.912233333333337,146.56434599156117
30.944133333333333,147.61053719008265
30.9922,147.95877378435517
31.0241,147.32764140875133
31.056033333333335,147.10762800417973
31.088133333333335,147.31118143459915
31.120233333333335,147.18016194331983
31.152133333333335,146.7054026503568
31.184033333333335,147.49479166666666
31.216166666666673,147.37809917355372
31.248333333333335,146.47731958762887
31.28016666666667,146.15352697095435
31.31216666666667,147.03083247687564
31.360233333333333,147.47473684210527
31.392100000000003,146.66181061394383
31.424266666666668,146.56932773109244
31.456133333333334,146.76858638743457
31.488166666666668,146.71991701244812
31.520233333333334,147.24920802534317
31.552300000000002,147.7229946524064
31.584266666666668,146.7765726681128
31.61616666666667,146.95176848874598
31.648200000000003,148.40652173913043
31.680366666666668,147.00538793103448
31.728033333333336,147.2823275862069
31.760233333333336,147.47939262472886
31.792266666666666,147.19305856832972
31.824133333333336,146.81397849462365
31.8562,147.12473572938688
31.88836666666667,147.08431163287088
31.9202,146.62579281183932
31.9521,146.40816326530611
31.984133333333336,146.7785862785863
32.01626666666667,147.81630434782608
32.0642,147.64550264550266
32.09623333333334,147.94574468085108
32.12813333333334,146.97814207650273
32.160266666666665,146.4337221633086
32.1923,146.95366379310346
32.224133333333334,147.3238993710692
32.256233333333334,147.58201058201058
32.2881,147.06290672451195
32.32026666666667,147.40455531453364
32.35243333333334,147.57986870897156
32.384100000000004,147.03418803418805
32.4321,146.63995726495727
32.46403333333333,147.10725552050474
32.49606666666667,147.69588173178457
32.52826666666667,146.83030949839915
32.5602,146.90811965811966
32.5922,147.03965702036442
32.62416666666667,147.20986358866736
32.6562,147.2711496746204
32.6882,147.09110629067246
32.7202,147.45281018027572
32.75216666666667,146.31644260599793
32.800200000000004,146.5635775862069
32.832233333333335,146.18709677419355
32.864266666666666,146.70267379679146
32.89613333333333,146.43369565217392
32.928266666666666,146.9406150583245
32.96046666666667,148.2590618336887
32.99223333333334,146.9883843717001
33.024100000000004,147.75754310344828
33.056200000000004,147.17582417582418
33.08833333333334,147.66811279826464
33.1361,147.8417721518987
33.1682,147.44058885383805
33.20013333333333,147.15401301518438
33.23213333333334,146.58526315789473
33.2641,146.3046218487395
33.29623333333333,146.11111111111111
33.3281,146.42105263157893
33.36026666666667,146.94282744282745
33.3922,147.28161530286928
33.42423333333333,148.24012474012474
33.45603333333334,148.71195652173913
33.50403333333333,147.6805411030177
33.53613333333333,147.75
33.568200000000004,148.24245689655172
33.60033333333333,148.47669491525423
33.63243333333333,147.30290456431536
33.66416666666667,147.56972972972974
33.696133333333336,148.25340314136128
33.728233333333336,147.1685625646329
33.7601,146.74418604651163
33.7922,147.67414529914532
33.824200000000005,147.93143459915612
33.87213333333334,146.94693028095736
33.9041,146.4221052631579
33.93626666666667,146.20435684647302
33.968300000000006,146.91080797481638
34.00013333333334,146.32943676939425
34.032133333333334,146.21587301587303
34.064233333333334,145.75000000000003
34.09616666666667,146.5378947368421
34.128166666666665,145.81196581196582
34.1601,146.54229934924078
34.208200000000005,146.95498392282957
34.240233333333336,146.95614973262033
34.272133333333336,146.10979547900968
34.30413333333333,146.3394396551724
34.336200000000005,147.853579175705
34.368300000000005,146.270182992465
34.40026666666667,146.8269230769231
34.4321,146.86850477200426
34.464133333333336,147.61241970021413
34.49626666666667,147.63645833333334
34.52816666666667,147.0083857442348
34.57613333333334,147.18763326226014
34.60803333333334,148.27978142076503
34.640100000000004,146.55783783783784
34.672133333333335,147.10065645514223
34.7043,146.7449088960343
34.73623333333334,146.58377801494132
34.76813333333334,147.06430868167203
34.800133333333335,147.23687031082528
34.832300000000004,146.520697167756
34.8641,146.69346195069667
34.8962,146.27330508474577
34.94413333333333,146.26631578947368
34.97606666666667,146.21533613445376
35.0083,147.4142705005325
35.04006666666667,147.54565217391306
35.0723,147.06008583690988
35.104033333333334,146.80385852090032
35.136166666666675,147.0355987055016
35.1683,145.84540540540542
35.2003,146.04103671706264
35.23216666666667,146.24290220820188
35.280166666666666,146.46822033898306
35.312133333333335,146.03586956521738
35.344233333333335,146.71581196581198
35.3761,146.8823529411765
35.408166666666666,147.34083601286173
35.44016666666667,146.49946638207044
35.47226666666667,146.57052631578946
35.504200000000004,147.09427966101694
35.53626666666667,146.7447973713034
35.56823333333333,145.9905063291139
35.600300000000004,146.158747300216
35.6482,145.96502732240438
35.68013333333334,147.13706140350877
35.712133333333334,147.03157894736842
35.744,146.1478260869565
35.77616666666667,146.7736051502146
35.808166666666665,147.83260869565217
35.8403,146.9063829787234
35.87213333333334,147.2874186550976
35.90426666666667,147.06430868167203
35.93633333333334,146.89924973204717
35.984233333333336,147.40455531453364
36.016200000000005,147.59533898305085
36.048300000000005,146.90236051502146
36.080466666666666,147.89869281045753
36.112233333333336,147.17815482502652
36.144133333333336,147.67775467775468
36.17613333333333,146.5405117270789
36.208200000000005,146.15591397849462
36.240233333333336,146.33194588969823
36.272133333333336,146.9321503131524
36.30406666666667,147.984126984127
36.3522,147.74021739130436
36.384100000000004,147.85427666314678
36.41623333333334,146.17684887459808
36.44836666666667,147.12988384371698
36.4802,146.65708200212993
36.512166666666666,146.18421052631578
36.5443,145.5524920466596
36.57613333333334,146.75538793103448
36.60823333333334,146.85774058577405
36.6402,146.83898305084745
36.672333333333334,145.75612472160356
36.72,146.52085561497327
36.7522,148.01570680628274
36.78413333333334,147.2553418803419
36.81616666666667,146.59508547008548
36.84803333333333,147.0182992465016
36.88033333333333,146.8352450469239
36.91213333333334,146.96707818930042
36.94416666666667,146.98959417273676
36.9761,146.5
37.00833333333333,147.16216216216216
37.0563,147.1654054054054
37.088033333333335,147.83496199782846
37.12016666666667,146.5784418356457
37.153333333333336,147.2993492407809
37.184133333333335,146.39957716701903
37.21626666666667,146.20581896551724
37.248200000000004,146.2743837084673
37.280233333333335,145.96691568836715
37.3123,147.05422993492408
37.344166666666666,146.7427027027027
37.37616666666667,147.27467811158797
37.4241,147.98170075349836
37.45606666666667,147.1140724946695
37.48806666666667,146.75675675675677
37.5202,147.19719827586206
37.5522,146.7416934619507
37.5841,147.41754756871038
37.61616666666667,147.44957983193277
37.6482,146.78478260869565
37.680233333333334,148.10344827586206
37.7122,147.00328227571114
37.74416666666667,146.09605122732125
37.792233333333336,147.19721329046087
37.82423333333333,146.53995680345574
37.856233333333336,147.00635593220338
37.888200000000005,147.04807692307693
37.92013333333333,146.9364406779661
37.9523,147.9145945945946
37.984233333333336,147.88841657810838
38.0161,146.8895966029724
38.04816666666667,145.5638528138528
38.08036666666667,147.11689691817216
38.1282,146.39442658092176
38.160266666666665,145.57872340425533
38.192166666666665,146.93870967741935
38.2242,146.03159041394338
38.256166666666665,146.2475884244373
38.2883,147.0420353982301
38.32026666666667,146.7991498405951
38.352133333333335,147.06781485468244
38.38406666666667,147.3020719738277
38.4163,147.01945945945945
38.44826666666667,147.0192926045016
38.496300000000005,147.1923076923077
38.52806666666667,147.95391211146838
38.5601,147.47679324894514
38.59223333333333,147.633714880333
38.62413333333333,148.02027748132338
38.65623333333333,147.64529914529916
38.6882,147.72251867662754
38.7203,146.2100313479624
38.75226666666667,146.7963558413719
38.78416666666667,146.39423076923077
38.81616666666667,147.11930585683297
38.8641,147.26486486486488
38.89606666666667,147.7171189979123
38.9283,147.36188436830835
38.9604,147.95747001090513
38.99216666666667,147.8984126984127
39.0242,147.74014909478169
39.05623333333334,148.2518918918919
39.088233333333335,147.80469583778014
39.120200000000004,147.65614798694233
39.15213333333333,148.07158351409979
39.2002,146.2357984994641
39.23233333333334,146.82301845819762
39.2641,147.65645514223195
39.29606666666667,147.81728665207876
39.32806666666667,147.21030042918454
39.3604,147.42222222222222
39.3922,147.93654266958424
39.4242,147.32104121475055
39.4562,147.28322440087146
39.48833333333334,147.79162072767366
39.52033333333333,147.9847494553377
39.568333333333335,147.2866520787746
39.600233333333335,147.72757111597375
39.632200000000005,148.0032223415682
39.6642,147.66190998902306
39.6963,147.31847826086957
39.728100000000005,147.94684385382058
39.76006666666667,146.83298538622128
39.79213333333333,147.17454954954954
39.824266666666674,147.7433628318584
39.856233333333336,147.77899343544857
39.888200000000005,147.97694840834248
39.936166666666665,148.32831001076426
39.9681,147.46860986547085
40.00033333333334,146.66382070437567
40.03236666666667,147.69346195069667
40.0642,147.58240534521158
40.09623333333334,148.2165058949625
40.12833333333334,147.96612021857925
40.160333333333334,147.2319474835886
40.1923,148.10793650793653
40.2242,147.37323177366704
40.27216666666667,146.13945945945946
40.304100000000005,147.58288190682555
40.33616666666667,147.0620067643743
40.36826666666667,147.19351351351352
40.400200000000005,147.45444444444445
40.43213333333333,147.1486033519553
40.46426666666667,147.9562363238512
40.49616666666667,147.57279489904357
40.528200000000005,146.773173391494
40.560300000000005,147.46356916578668
40.592200000000005,146.67895878524945
40.640233333333335,147.54477611940297
40.6721,147.3391494002181
40.7042,148.36966292134832
40.736133333333335,147.8105147864184
40.768233333333335,147.68763326226014
40.80023333333334,148.53093363329586
40.83213333333334,147.2552026286966
40.8641,147.01393354769561
40.8962,147.81657458563538
40.928333333333335,147.6236559139785
40.960300000000004,148.40084835630967
41.0081,147.55150214592274
41.04006666666667,146.09431939978563
41.0723,147.76586433260394
41.10426666666667,147.39956568946798
41.136166666666675,147.86455026455027
41.16813333333334,147.69474835886214
41.20023333333334,147.43987341772151
41.23226666666667,148.68069039913698
41.26406666666667,147.0448979591837
41.29626666666667,147.08376963350787
41.344100000000005,147.57297297297296
41.3761,146.96355841371917
41.408166666666666,147.25905598243688
41.44006666666667,146.96091205211727
41.472033333333336,146.37580993520518
41.5041,146.9465811965812
41.53626666666667,146.89924973204717
41.568333333333335,147.26282051282053
41.6002,147.85058697972252
41.632133333333336,147.89966923925027
41.66426666666667,146.2950474183351
41.71216666666667,148.02994652406417
41.7442,147.08971553610502
41.77616666666667,146.41847826086956
41.80816666666667,147.09776833156215
41.84023333333334,146.69444444444446
41.87236666666667,146.57805907172994
41.90416666666667,146.99580272822666
41.9362,147.60978260869567
41.9682,147.5519828510182
42.0002,147.42099681866387
42.032066666666665,147.64636752136752
42.080133333333336,147.30688935281836
42.11216666666667,145.8736842105263
42.144133333333336,147.5635775862069
42.1762,147.75929978118162
42.208200000000005,148.09
42.24026666666667,147.86739130434782
42.27226666666667,148.74617067833697
42.304233333333336,147.86397449521783
42.336333333333336,147.63022508038586
42.36826666666667,147.75596529284167
42.4161,147.12861736334406
42.448100000000004,147.33913043478262
42.480133333333335,147.25714285714287
42.512233333333334,146.66949152542372
42.544133333333335,148.15448851774528
42.576233333333334,148.86474973375934
42.60816666666667,147.88324324324324
42.64033333333334,149.0935412026726
42.672133333333335,147.3257328990228
42.704166666666666,147.9792122538293
42.736066666666666,147.89902280130295
42.78403333333333,147.96389496717723
42.8162,146.84565916398714
42.84816666666667,147.20471596998928
42.8802,147.37191854233654
42.91213333333334,147.78884026258206
42.94426666666667,147.2694414019715
42.97613333333334,146.9233226837061
43.0081,146.54761904761904
43.04023333333333,146.8133918770582
43.07233333333333,146.6322089227421
43.10426666666667,147.2615219721329
43.15226666666667,147.76810073452256
43.18403333333333,147.40811965811966
43.2162,147.20218579234972
43.24823333333334,148.09003215434083
43.280233333333335,147.05742145178763
43.312200000000004,147.46325878594251
43.344166666666666,147.17948717948718
43.37616666666667,147.24650161463939
43.40833333333334,146.47058823529412
43.4401,147.60361317747078
43.488,147.29560439560439
43.52,148.4621052631579
43.55206666666667,146.91450216450215
43.584133333333334,147.0727470141151
43.61616666666667,148.04890738813737
43.6482,147.13680781758958
43.68006666666667,147.02717391304347
43.7123,148.13447171824976
43.74413333333334,147.31987247608924
43.77616666666667,147.90568060021437
43.8082,147.223991507431
43.856033333333336,147.64951768488746
43.888133333333336,147.81473684210525
43.92033333333333,146.71532846715328
43.95216666666667,147.57234726688102
43.98416666666667,148.10303687635576
44.01606666666667,147.7513397642015
44.048233333333336,147.33549083063645
44.080200000000005,149.0407949790795
44.112233333333336,148.91139240506328
44.14406666666667,147.32583065380493
44.19213333333334,147.32767762460236
44.2242,147.14483493077745
44.25613333333334,147.11770943796395
44.288133333333334,146.60123329907503
44.32013333333334,146.23706896551724
44.35226666666667,148.04491978609627
44.3842,147.54852320675104
44.4162,146.59209157127992
44.448033333333335,148.42099792099793
44.480266666666665,147.99361022364218
44.5123,147.96337402885683
44.560300000000005,148.4756756756757
44.59213333333334,147.4858695652174
44.624,148.43240223463687
44.65616666666667,147.63555555555556
44.6882,147.83807439824946
44.72026666666667,148.01969365426694
44.75226666666667,148.30032644178456
44.78410000000001,146.8869936034115
44.81633333333333,146.70706006322445
44.84806666666667,147.9744680851064
44.88003333333334,147.76065573770492
44.92813333333333,147.7658371040724
44.960033333333335,148.31944444444446
44.992333333333335,147.31208791208792
45.02413333333334,147.67105263157893
45.056200000000004,148.22573609596512
45.0882,148.26571113561192
45.120266666666666,148.98701298701297
45.152366666666666,148.96706915477498
45.18403333333334,148.32443970117396
45.216166666666666,148.15591397849462
45.26416666666667,148.57662624035282
45.296,147.9164835164835
45.328133333333334,147.760593220339
45.360033333333334,147.55312157721795
45.392133333333334,147.76483516483518
45.4241,148.58213891951488
45.45616666666667,147.92150537634407
45.48816666666667,148.6801752464403
45.5202,149.21814254859612
45.5522,149.0389321468298
45.58426666666667,149.54485049833886
45.63223333333334,149.23042998897463
45.66416666666667,148.72655367231638
45.696000000000005,149.2989247311828
45.728033333333336,149.2112211221122
45.76026666666666,148.96267837541163
45.79216666666667,148.8103638368247
45.824133333333336,148.65676567656766
45.85616666666667,148.16210295728368
45.8883,147.87991021324356
45.920233333333336,147.92440604751621
45.952333333333335,147.88743169398907
46.0001,147.84822389666306
46.032133333333334,148.03880266075387
46.06413333333334,148.27160493827162
46.0963,148.54704595185996
46.1281,148.90297684674752
46.1604,148.5860566448802
46.1924,148.47255113024755
46.2243,147.26716738197425
46.2562,147.9137168141593
46.28816666666667,148.18777777777777
46.33616666666667,146.6112311015119
46.3682,147.40761478163495
46.40023333333333,148.3669923995657
46.4324,147.69751693002257
46.464133333333336,148.26666666666668
46.4962,147.88490770901194
46.52823333333333,148.77257889009795
46.560300000000005,148.69744160177976
46.59203333333333,148.38063063063063
46.624100000000006,148.6977777777778
46.65636666666667,147.2288888888889
46.704100000000004,148.4656652360515
46.736266666666666,148.15824175824176
46.7682,148.81533477321815
46.800200000000004,148.1577801958651
46.832166666666666,147.95922746781116
46.86423333333334,147.7718715393134
46.8962,146.99579390115667
46.928266666666666,148.44733984799132
46.96033333333334,148.55703211517164
46.992333333333335,147.37885462555067
47.024033333333335,147.54828326180257
47.0721,148.78077753779698
47.104033333333334,148.45102260495156
47.1361,148.2691065662002
47.1683,148.1595744680851
47.2002,148.55758880516683
47.23223333333333,148.18250539956804
47.2641,148.44671689989235
47.2963,148.66090712742982
47.32826666666667,147.55591748099891
47.36036666666667,147.93569131832797
47.40820000000001,148.32135076252726
47.44006666666667,148.36911281489594
47.472366666666666,148.1431646932185
47.50423333333334,148.04628632938642
47.536233333333335,148.04166666666669
47.568266666666666,148.2497308934338
47.60016666666667,148.1367061356297
47.632266666666666,148.4642857142857
47.664100000000005,148.7750269106566
47.696133333333336,148.4039087947883
47.72813333333333,147.8075221238938
47.7761,148.74159663865547
47.80826666666667,149.42122186495178
47.8402,149.2779552715655
47.87213333333334,148.34125269978404
47.90423333333334,147.31890179514255
47.93633333333334,147.26136363636365
47.968333333333334,147.07792207792207
48.00033333333334,148.12968917470525
48.0322,147.7696447793326
48.0643,148.47685683530676
48.09616666666667,148.34486486486486
48.14423333333333,148.4673097534834
48.17616666666667,148.9737417943107
48.208333333333336,149.2671009771987
48.24026666666667,146.71397849462366
48.27216666666667,148.41011840688913
48.30406666666667,149.0377969762419
48.336133333333336,148.7749196141479
48.36813333333333,149.37405405405406
48.40026666666667,148.21857923497268
48.43233333333333,148.4614549402823
48.4802,148.253829321663
48.512166666666666,148.2954796030871
48.5441,148.88210075026794
48.57626666666667,148.87781350482314
48.60816666666667,148.4440753045404
48.640233333333335,148.83088235294116
48.67216666666667,148.08972972972973
48.7042,148.1226012793177
48.736133333333335,147.84615384615387
48.76813333333334,148.0615212527964
48.800133333333335,147.89762931034483
48.848200000000006,148.90782422293677
48.88003333333334,148.82958199356912
48.91216666666667,148.2513661202186
48.9441,148.63666666666666
48.97606666666667,148.32491767288695
49.0082,148.71689989235736
49.04016666666667,148.44008483563098
49.07223333333334,147.76582278481013
49.10413333333334,147.34829059829062
49.1361,148.8480603448276
49.168200000000006,149.47912087912087
49.216300000000004,149.54596412556054
49.248200000000004,150.05875831485588
49.28013333333334,150.27138331573389
49.312133333333335,150.17717391304348
49.34413333333334,149.69330453563717
49.37606666666667,149.84039087947883
49.40813333333334,149.7592190889371
49.44006666666667,149.00433369447452
49.47233333333334,149.94854586129753
49.50416666666667,149.5200868621064
49.55223333333334,149.19535374868002
49.58403333333334,148.92481203007517
49.616033333333334,148.0291576673866
49.648133333333334,148.39139784946238
49.68033333333334,150.02224576271186
49.71223333333334,150.031512605042
49.74416666666667,149.36334405144694
49.77616666666667,149.62923728813558
49.80836666666667,149.88877118644066
49.84026666666667,149.82135076252726
49.87226666666667,151.21096173733196
49.92026666666667,150.32478632478634
49.9521,151.43762993762994
49.98416666666667,151.58712541620423
50.01616666666667,150.3300760043431
50.048300000000005,150.50431965442766
50.08016666666667,148.81197478991595
50.112300000000005,149.23706896551724
50.144200000000005,149.61307609860665
50.17613333333333,149.87144362486828
50.20823333333333,150.05268817204302
50.24036666666667,149.27542372881356
50.28823333333334,148.87978723404257
50.320233333333334,148.49945945945947
50.35216666666667,149.9383783783784
50.38416666666667,150.33405405405406
50.41623333333334,149.96559139784947
50.448233333333334,149.21511017838407
50.480133333333335,149.74248927038627
50.51213333333334,149.34558823529412
50.54403333333334,148.78256302521007
50.576233333333334,148.68186753528775
50.6242,149.78094194961665
50.656099999999995,150.43358946212953
50.68816666666667,149.0996749729144
50.720200000000006,148.94098712446353
50.75233333333333,148.75783783783783
50.78426666666667,149.04282655246254
50.81623333333334,149.03347732181427
50.84826666666667,149.11264612114772
50.8802,148.00318809776832
50.91223333333333,149.37053087757312
50.94416666666667,149.2357373519914
50.9921,149.35179153094464
51.024,149.58103638368246
51.0561,149.65945945945947
51.088300000000004,149.0
51.120200000000004,148.21299254526093
51.15213333333334,148.66843220338984
51.184066666666666,148.56637168141592
51.21626666666667,148.9508379888268
51.24816666666667,148.778256189451
51.280199999999994,149.27124183006538
51.31206666666667,150.40893854748603
51.36023333333333,149.2
51.39226666666667,149.1357220412595
51.42416666666667,149.6571113561191
51.45616666666667,150.92410714285714
51.488233333333326,150.2947481243301
51.52023333333334,150.6558089033659
51.55243333333333,149.1943539630836
51.5841,149.8099891422367
51.61626666666667,149.73002159827215
51.6483,149.24945295404814
51.696000000000005,148.5112540192926
51.7282,149.21498371335505
51.760133333333336,148.52747252747253
51.792233333333336,149.4743169398907
51.824133333333336,148.71552660152008
51.85626666666667,148.45748116254035
51.888200000000005,149.2267818574514
51.920233333333336,149.30981256890848
51.95226666666667,148.72981700753496
51.9842,149.48488120950324
52.0163,149.03715846994535
52.06413333333334,148.7556512378902
52.0961,149.16979051819183
52.1281,148.73736263736265
52.16036666666667,148.33333333333334
52.19216666666667,149.2229367631297
52.22406666666667,149.23594266813672
52.25613333333334,148.95570321151715
52.28823333333334,149.15645514223195
52.32026666666667,149.38153503893216
52.35216666666667,149.4361820199778
52.4001,149.57331863285557
52.43213333333333,148.380174291939
52.4641,149.62958843159066
52.49626666666667,150.02622950819674
52.528200000000005,148.562091503268
52.56013333333333,148.68250539956804
52.5921,149.45424107142856
52.624233333333336,149.25534308211476
52.656200000000005,149.58028792912512
52.68813333333333,149.71653543307087
52.72010000000001,150.0413870246085
52.7682,149.86489479512736
52.800133333333335,149.74945054945056
52.832100000000004,150.0286659316428
52.864066666666666,149.3016393442623
52.89613333333334,149.244060475162
52.9283,149.54319654427647
52.96036666666667,148.78594950603733
52.99216666666667,149.1504524886878
53.024100000000004,149.91479820627802
53.056333333333335,150.75934065934067
53.08833333333334,150.82150776053214
53.13626666666667,150.7549889135255
53.16816666666667,149.8879120879121
53.20023333333334,149.55591748099891
53.232200000000006,149.23169398907103
53.26423333333334,149.4607843137255
53.29616666666667,148.96830601092896
53.32826666666667,149.08524590163935
53.36023333333333,149.45274725274726
53.39216666666667,148.76640711902112
53.42413333333334,149.7253829321663
53.4722,149.7354211663067
53.5041,149.63436123348018
53.53613333333334,150.09866962305986
53.5683,149.53040540540542
53.600300000000004,150.53326063249727
53.632266666666666,149.55831533477323
53.6642,149.54233654876742
53.69623333333334,149.67278617710585
53.7282,149.7526997840173
53.76023333333334,150.29405405405404
53.7922,150.38702702702702
53.8401,148.15982241953387
53.87216666666667,147.81115879828326
53.904133333333334,148.23497854077254
53.9362,147.82415254237287
53.968133333333334,149.22872340425533
54.00013333333334,149.88279569892472
54.032300000000006,150.26601520086862
54.06413333333334,149.93401592719
54.09623333333334,149.03825717321996
54.1282,149.4690831556503
54.16056666666667,149.3318918918919
54.20823333333333,149.0502732240437
54.240100000000005,148.53895410885806
54.272133333333336,149.65425531914894
54.304100000000005,147.90928725701946
54.3363,149.40360169491527
54.368300000000005,149.7685683530678
54.400200000000005,149.3864370290635
54.43213333333333,149.64209401709402
54.46423333333333,149.43436499466384
54.49613333333333,149.37832093517534
54.54416666666667,151.0184581976113
54.57606666666668,150.12750263435194
54.6081,149.66270270270272
54.640233333333335,150.75135135135136
54.672333333333334,150.68060021436227
54.70413333333334,149.98907103825135
54.73603333333334,150.11004273504275
54.768166666666666,150.54936974789916
54.8003,150.1684434968017
54.8322,149.77012711864407
54.864066666666666,150.38900203665986
54.9121,149.53968253968256
54.944100000000006,149.44984160506863
54.97616666666667,149.70754716981133
55.008100000000006,150.0563829787234
55.0401,150.4611344537815
55.07206666666667,149.9255429162358
55.10423333333333,149.790202342918
55.13623333333334,149.37566702241196
55.168033333333334,150.06376195536663
55.20023333333334,149.89467969598263
55.23243333333333,148.93051031487514
55.280033333333336,149.37191854233654
55.31223333333334,150.06566200215283
55.34413333333334,149.524219590958
55.3761,147.48744769874475
55.40820000000001,148.10990206746465
55.4403,148.26931330472104
55.472166666666666,147.13052858683926
55.5041,148.19590958019376
55.53613333333334,146.76614699331847
55.56823333333334,147.62222222222223
55.6161,147.24781659388645
55.648133333333334,148.0566448801743
55.68016666666667,148.01167728237792
55.71206666666667,149.52391304347827
55.744233333333334,149.06237006237006
55.776133333333334,148.90200210748154
55.80813333333334,149.7392703862661
55.840133333333334,148.12899896800823
55.872233333333334,149.20922746781116
55.9042,148.87460148777896
55.93616666666667,149.34185303514377
55.984,148.89400428265526
56.01606666666667,149.53583241455348
56.0482,150.00216684723725
56.080200000000005,150.2572972972973
56.112100000000005,149.72060409924487
56.14403333333333,150.44906900328587
56.17606666666667,149.72668112798266
56.20823333333334,150.74451754385964
56.24016666666667,150.77076411960132
56.27226666666667,148.8110992529349
56.30406666666667,149.00867678958787
56.35226666666667,148.8450704225352
56.38416666666667,148.13536201469046
56.41616666666667,148.8623265741729
56.44806666666666,148.91602209944753
56.48016666666667,149.32977588046958
56.512233333333334,149.38257173219978
56.54416666666667,148.40448239060834
56.57613333333334,150.07403433476395
56.60816666666667,149.85714285714286
56.640233333333335,149.0414452709883
56.68806666666667,149.8893756845564
