Time,Signal_1
0.0,157.24973656480503
0.031900000000000005,155.68477103301385
0.06393333333333334,156.29278350515463
0.09603333333333333,155.86527929901425
0.128,155.2475780409042
0.15996666666666667,155.4133476856835
0.19210000000000002,156.22433862433863
0.22406666666666666,155.5091496232508
0.25606666666666666,155.64635473340587
0.28803333333333336,155.47333333333333
0.33593333333333336,154.9989224137931
0.368,154.8655737704918
0.4,155.10066371681415
0.43210000000000004,154.9475982532751
0.46403333333333335,154.90666666666667
0.496,155.33225458468175
0.528,155.2443729903537
0.5601666666666667,154.72391304347826
0.5920666666666667,155.03804347826087
0.6242,154.19955406911927
0.672,153.49030172413794
0.7039333333333334,153.6380846325167
0.7360333333333333,155.0377777777778
0.7682,155.13413304253
0.7999333333333334,154.81444444444443
0.8319666666666667,154.53863134657837
0.8641000000000001,154.29098805646038
0.8961,154.79310344827587
0.928,154.7664155005382
0.9599666666666667,154.96630434782608
0.9921000000000001,154.44812834224598
1.0399,153.50434782608696
1.0720333333333334,153.67608695652174
1.104,153.5836956521739
1.1359333333333335,153.96875
1.1679333333333335,153.5253863134658
1.2000333333333333,154.0649779735683
1.232,154.36193619361936
1.264,154.07978142076502
1.2959,154.41883116883116
1.3281333333333334,154.67245119305858
1.3599333333333334,154.60846560846562
1.4080000000000001,154.74391534391535
1.4399333333333337,154.9216494845361
1.472,154.17248908296943
1.5042333333333333,154.0360082304527
1.5361333333333334,154.17745302713985
1.568,153.97613882863342
1.6,153.88453159041396
1.6320666666666668,153.81138040042148
1.6641333333333335,154.27382256297918
1.6959666666666668,154.1020191285866
1.744,154.1093585699264
1.7761,154.1182212581345
1.808,154.65995762711864
1.8400333333333334,155.07675906183368
1.872,154.44312026002166
1.9041333333333335,154.09776833156215
1.9359333333333333,154.05347593582889
1.9682333333333335,154.49893162393164
1.9999666666666667,153.6798245614035
2.0320666666666667,154.8922091782284
2.0640333333333336,154.4994652406417
2.1119,154.54039301310044
2.144066666666667,154.84138655462183
2.1761,154.82266526757607
2.2081,154.84735202492212
2.2399333333333336,154.63213530655392
2.2721666666666667,155.1228813559322
2.3041666666666667,154.7879417879418
2.3361,154.71607515657618
2.3680333333333334,155.0083682008368
2.4001333333333332,154.63778705636742
2.432,154.7640211640212
2.48,154.45112781954887
2.512,153.40998959417274
2.5439000000000003,153.43285123966942
2.5760666666666667,152.62788259958072
2.6081000000000003,152.69150052465898
2.6400333333333337,151.90400843881855
2.672,151.06057385759829
2.704,150.68454258675078
2.7361666666666666,150.50823045267492
2.7680000000000002,151.36288659793814
2.8161333333333336,151.0084388185654
2.8480000000000003,150.95302713987473
2.879966666666667,151.21383647798743
2.9121333333333337,150.9063475546306
2.9440666666666666,151.6861081654295
2.9759,151.35263702171667
3.0080666666666667,150.8563656147987
3.040166666666667,151.20507399577167
3.0722333333333336,151.15621679064824
3.1041333333333334,150.60778128286015
3.136066666666667,151.07845188284517
3.1839666666666666,151.10993657505287
3.2161333333333335,151.28024819027922
3.2481,150.9837310195228
3.2799333333333336,150.69370330843117
3.3120000000000003,151.45108695652175
3.3440333333333334,150.7960741548528
3.3761,151.9598765432099
3.407966666666667,152.45338983050848
3.439966666666667,152.30434782608697
3.472033333333333,152.31732776617952
3.5041333333333333,151.69755058572952
3.5521000000000003,151.79175475687103
3.5841333333333334,150.7607296137339
3.6161333333333334,151.06342494714588
3.6480333333333337,150.61771058315335
3.6801333333333335,150.96972972972972
3.712066666666667,150.9653725078699
3.744066666666667,150.63685344827587
3.7759333333333336,151.16970998925885
3.8081,150.60775862068965
3.840066666666667,150.4913043478261
3.8882333333333334,151.06236559139785
3.919966666666667,150.86449579831933
3.952066666666667,150.32773109243698
3.9840333333333335,150.13149522799577
4.016266666666667,150.2145178764897
4.048033333333334,150.3860021208908
4.0799666666666665,149.77862595419847
4.112033333333334,150.22672508214677
4.144166666666667,150.21719955898567
4.176,150.6195652173913
4.208166666666667,150.5247844827586
4.2559000000000005,149.86225596529286
4.288133333333334,150.4821052631579
4.3200666666666665,150.7087276550999
4.352033333333334,150.41220556745182
4.384,150.0010775862069
4.416,150.0
4.448166666666667,150.55882352941177
4.479966666666667,151.0515247108307
4.512066666666667,151.2431289640592
4.544133333333334,151.00106723585913
4.5761666666666665,150.20820189274448
4.624066666666667,150.2754555198285
4.6561,150.53270042194092
4.687966666666667,150.49473684210525
4.719966666666667,151.17597471022128
4.752033333333333,151.31983385254412
4.7841000000000005,151.1702819956616
4.816166666666667,150.80851063829786
4.848,150.19137749737118
4.879966666666667,150.39148936170213
4.912100000000001,150.66309012875536
4.9600333333333335,150.68415529905562
4.991966666666667,151.27983104540652
5.0239,150.8002125398512
5.0561,151.03911205073996
5.088166666666667,150.8033826638478
5.120033333333334,150.85368421052632
5.152,151.36430062630478
5.184,151.39679144385028
5.216166666666667,150.38529088913282
5.2481333333333335,150.21097954790096
5.279966666666668,150.2483731019523
5.3280666666666665,151.10548977395047
5.359933333333333,150.73842841765338
5.392033333333334,151.18267223382045
5.4242,150.88372093023256
5.456033333333334,151.0952380952381
5.488033333333334,151.50465356773526
5.520000000000001,151.38733125649014
5.5521,151.41336116910227
5.584033333333333,150.7831950207469
5.6161666666666665,150.91277258566979
5.647966666666667,149.9717277486911
5.696033333333333,150.06617647058823
5.728166666666667,150.53895410885806
5.759966666666667,150.19978746014877
5.792066666666667,150.39594450373534
5.824166666666667,150.48349307774228
5.856133333333333,150.85473684210527
5.888166666666667,150.8378947368421
5.919966666666667,151.2945492662474
5.952,151.3032873806999
5.9840333333333335,151.2778366914104
6.031966666666667,150.07809110629069
6.064,149.9903743315508
6.0961,150.4853737811484
6.128066666666667,150.21627408993578
6.159966666666667,149.9956942949408
6.1921333333333335,150.22105263157894
6.224033333333334,150.34598698481562
6.256033333333334,150.19210245464248
6.288033333333334,150.77904564315352
6.320033333333334,151.2483731019523
6.3520666666666665,151.15037593984962
6.400066666666667,150.83706070287542
6.432,150.93473684210525
6.4641,150.51365546218486
6.496066666666667,150.36239495798318
6.527900000000001,150.27531645569618
6.5601,150.63414634146343
6.5920000000000005,151.2580982236155
6.6241,151.0105708245243
6.656233333333334,151.32227979274612
6.6879333333333335,150.87380699893956
6.736000000000001,151.6479915433404
6.768000000000001,151.27167019027485
6.799933333333334,151.2736842105263
6.831966666666667,151.45877378435517
6.864000000000001,151.46105263157895
6.8960333333333335,151.3833157338965
6.928,151.47564766839378
6.960133333333333,151.14197530864197
6.992066666666667,151.70724029380904
7.024100000000001,150.168253968254
7.056033333333334,151.57112068965517
7.103966666666667,151.32154340836013
7.136166666666667,150.47794117647058
7.168100000000001,150.6504329004329
7.199966666666667,151.7757894736842
7.231933333333334,151.59652928416486
7.264,151.57483731019522
7.2961,151.38394793926247
7.328200000000001,151.17121848739495
7.359966666666667,151.5950590762621
7.392166666666667,151.37566702241196
7.424200000000001,151.4967672413793
7.4721,151.02526315789473
7.504,151.54612937433723
7.536033333333334,151.38372093023256
7.568166666666667,152.12008501594048
7.600133333333334,151.54122621564483
7.632033333333334,151.26898734177215
7.664000000000001,151.32650972364382
7.696000000000001,151.41448058761804
7.728166666666667,151.16195652173914
7.759966666666667,150.9808510638298
7.808066666666667,150.81643543223052
7.840000000000001,151.15673981191225
7.872033333333333,151.2632135306554
7.904166666666667,150.92349137931035
7.936166666666667,151.0872844827586
7.968133333333333,151.08686440677965
8.0,150.98599137931035
8.032133333333334,151.65572033898306
8.064066666666667,151.640756302521
8.096,150.34306569343067
8.127966666666667,151.00414937759336
8.176,150.64004149377593
8.208066666666667,150.14135021097044
8.240033333333333,150.30752453653218
8.271966666666668,150.65714285714287
8.304066666666667,151.49025974025975
8.335933333333333,150.7358695652174
8.368233333333334,150.75505857294996
8.400033333333333,150.40860215053763
8.432066666666667,150.66160520607374
8.464133333333335,151.41039236479324
8.496233333333334,150.6072186836518
8.5441,150.78907922912205
8.576066666666668,150.31578947368422
8.608,150.23642172523964
8.640066666666668,149.98083067092654
8.6722,150.9055374592834
8.704166666666667,150.1561181434599
8.7361,150.44173728813558
8.768133333333333,150.8010695187166
8.8001,150.71792152704137
8.832033333333333,150.69125395152793
8.88,150.67157894736843
8.911933333333334,151.39512711864407
8.943933333333334,151.557917109458
8.975933333333334,150.86358866736623
9.0081,151.41649269311063
9.040133333333333,150.7024185068349
9.072000000000001,150.60255047821465
9.104066666666666,150.48884165781084
9.1362,151.31696905016008
9.168066666666666,150.84317937701397
9.200066666666666,151.11339092872572
9.248166666666668,151.1830403309204
9.280000000000001,151.0872844827586
9.312166666666666,150.91920251836308
9.344100000000001,150.50054288816506
9.375933333333334,151.17088607594934
9.408000000000001,151.20819848975188
9.440166666666666,150.6734693877551
9.472033333333334,150.9073275862069
9.504066666666667,150.90326086956523
9.536066666666667,150.70575461454942
9.568166666666666,150.23669923995658
9.616033333333334,150.45602605863192
9.648233333333334,150.975
9.680166666666667,150.67780172413794
9.712066666666667,151.21938232161875
9.744133333333334,151.46652719665272
9.776166666666667,151.38607594936707
9.808,151.0997830802603
9.839933333333335,150.60303687635576
9.872066666666667,150.82193268186754
9.904133333333336,150.45684210526315
9.952066666666667,150.15116279069767
9.984133333333334,150.2926829268293
10.015866666666668,150.92521367521368
10.047866666666668,150.6989010989011
10.0801,150.11546840958607
10.112,150.94983991462115
10.1441,150.9956896551724
10.176033333333335,150.87882096069868
10.208166666666667,151.484425349087
10.240133333333334,150.31366120218578
10.2722,150.0290948275862
10.32,150.53617021276597
10.352066666666667,149.99891540130153
10.384033333333333,150.2431289640592
10.416166666666667,150.46194503171247
10.448033333333333,150.70231532524807
10.480033333333333,150.65887353878853
10.512033333333333,150.81856100104275
10.5441,149.8966630785791
10.576066666666668,150.96976241900649
10.608033333333333,150.9695652173913
10.64,150.59251336898396
10.687933333333334,150.89354838709679
10.720133333333333,150.63135593220338
10.752133333333333,149.70498915401302
10.784066666666668,150.36874361593462
10.8162,149.86320254506893
10.8482,149.98319327731093
10.880033333333333,149.73931623931625
10.912033333333333,149.74545454545455
10.944033333333334,150.3386075949367
10.976133333333333,150.48654467168998
11.024,150.9382448537378
11.056066666666668,150.7359081419624
11.087900000000001,150.41331923890064
11.120000000000001,151.2131495227996
11.152066666666666,151.2293868921776
11.1842,150.72146596858641
11.216133333333334,150.43829787234043
11.248033333333336,149.91812227074234
11.280133333333334,151.2415254237288
11.312166666666668,150.52442996742673
11.344100000000001,151.23287671232876
11.391966666666667,151.22459893048128
11.424033333333334,151.6802575107296
11.456133333333334,150.78579003181338
11.488166666666666,151.1636167922497
11.520100000000001,151.37890204520988
11.552033333333334,150.5751565762004
11.584066666666667,150.87875536480686
11.616166666666667,150.3383783783784
11.648,150.61605206073753
11.68,150.7711496746204
11.711966666666667,151.20633187772924
11.759933333333334,151.3590021691974
11.791933333333334,151.014192139738
11.824133333333334,150.8045112781955
11.856066666666667,150.6370449678801
11.888066666666667,150.7664155005382
11.920033333333334,150.76600209863588
11.9521,150.3427970557308
11.984200000000001,150.49731471535983
12.016033333333334,151.12216216216217
12.047966666666667,150.04555314533624
12.095866666666668,150.30924548352814
12.128,150.1117136659436
12.159966666666667,150.08644610458913
12.1919,150.94123931623932
12.2239,151.1930010604454
12.256,150.77139874739038
12.288033333333335,150.72129436325676
12.320133333333334,150.83089770354906
12.352033333333335,151.1431646932185
12.384066666666667,151.1982665222102
12.416266666666667,149.8068303094984
12.4641,149.84272051009563
12.496,150.08972972972973
12.528033333333333,149.9394261424017
12.559933333333335,150.00736842105263
12.592066666666668,149.30531914893618
12.624066666666668,150.80866807610994
12.656133333333335,150.756727664155
12.688033333333333,150.87193169690502
12.720166666666668,150.52536997885835
12.751966666666668,151.67088607594934
12.784133333333333,151.6723044397463
12.831933333333334,150.7700421940928
12.863966666666668,151.06178010471206
12.896233333333335,150.99465240641712
12.9281,150.83979057591625
12.96,150.92664509169362
12.992066666666668,151.2524064171123
13.024166666666668,151.3671706263499
13.056133333333333,150.80188679245285
13.088000000000001,150.79617834394904
13.120033333333334,150.9302575107296
13.168000000000001,151.29535864978902
13.200033333333334,150.74703982777177
13.232066666666666,151.67950052029138
13.264000000000001,151.97271773347325
13.296066666666666,150.7066381156317
13.328033333333334,150.48136315228967
13.360033333333334,150.52118644067798
13.391966666666667,150.47900968783637
13.423966666666667,150.62198952879584
13.456133333333334,150.93669527896995
13.488166666666668,151.3602094240838
13.536166666666666,151.32558139534885
13.568033333333334,151.00429184549355
13.600066666666667,151.55848261327714
13.632000000000001,151.47880041365048
13.664100000000001,151.356004250797
13.696200000000001,151.06962025316454
13.728033333333334,150.82780748663103
13.760066666666667,151.39748953974893
13.792200000000001,150.8753894080997
13.824166666666667,151.01588983050848
13.856066666666667,152.02325581395348
13.904100000000001,151.59850107066381
13.935966666666667,150.8934169278997
13.968,151.77167019027485
14.000100000000002,152.81190223166843
14.032066666666667,152.2615715823466
14.064033333333334,151.93059936908517
14.096,151.6367432150313
14.128233333333334,151.0497409326425
14.1601,150.48179871520344
14.192066666666667,150.36997885835095
14.24,150.92600205549846
14.272,151.07875647668394
14.304133333333334,151.27471383975026
14.3361,150.95137420718817
14.368066666666667,150.78033472803347
14.4,150.94270833333334
14.4321,150.44147843942505
14.4641,151.66805845511482
14.496033333333335,150.70713525026625
14.5279,150.87752928647498
14.56,150.09174311926606
14.608,150.0393541876892
14.6401,149.3850210970464
14.672066666666668,149.90851735015772
14.704033333333333,150.16067653276957
14.736033333333333,149.18997912317326
14.768133333333335,150.1165254237288
14.800066666666668,150.50053134962803
14.832066666666668,149.60990712074303
14.8641,150.4164882226981
14.896166666666668,149.76293995859214
14.944,150.61141011840687
14.975933333333334,150.27473684210526
15.008033333333334,150.96315789473684
15.040000000000003,150.55567010309278
15.0721,149.48929336188436
15.104266666666668,150.8316221765914
15.136166666666668,150.91304347826087
15.168066666666668,150.81296493092455
15.2001,151.69303797468353
15.232033333333332,150.46589716684156
15.264066666666668,150.7716115261473
15.312000000000001,150.64887940234792
15.343933333333334,150.71502590673575
15.375933333333334,151.18881856540082
15.408066666666667,151.6763787721124
15.440033333333334,150.81112277019938
15.472033333333334,150.98520084566596
15.504066666666667,150.7642626480086
15.536100000000001,151.1521739130435
15.567966666666667,150.83826638477802
15.600033333333334,151.03680336487906
15.632066666666667,151.69230769230768
15.6799,151.36616702355462
15.712166666666667,151.4765458422175
15.744100000000001,151.3873015873016
15.776066666666667,151.4141201264489
15.807933333333335,151.41622760800843
15.840333333333334,151.27339642481599
15.872166666666667,151.64412070759627
15.904100000000001,150.9050160085379
15.936066666666667,151.08958333333334
15.968166666666667,151.58129649309245
16.0161,151.17970401691332
16.048233333333336,150.70877944325483
16.080000000000002,150.681330472103
16.111933333333333,151.48488008342022
16.144166666666667,151.2244258872651
16.1762,151.44281217208814
16.207966666666668,151.86195995785036
16.239900000000002,151.625786163522
16.272000000000002,152.37697993664202
16.304166666666667,151.1384778012685
16.336033333333333,151.16
16.38416666666667,150.65439672801637
16.416,150.81419624217116
16.448,151.11945031712474
16.480133333333335,151.52114164904864
16.512033333333335,150.42990654205607
16.544066666666666,151.55879292403748
16.576033333333335,151.72944849115507
16.608133333333335,151.8742268041237
16.64016666666667,151.52232606438213
16.671933333333335,151.49122807017542
16.704100000000004,150.62909836065575
16.751933333333334,151.5052966101695
16.783933333333334,151.59397715472483
16.816100000000002,151.22801635991823
16.84813333333333,150.72463768115944
16.880000000000003,151.10537407797682
16.912033333333333,151.01031991744065
16.944166666666668,151.41407867494826
16.976100000000002,151.48868312757202
17.008100000000002,151.37891440501042
17.040033333333334,151.08049535603715
17.087966666666667,151.49013499480787
17.120033333333335,151.1394871794872
17.152133333333335,151.10227272727272
17.184033333333335,150.54740061162082
17.2162,151.60457856399586
17.2481,150.79132231404958
17.280033333333336,150.50998948475288
17.312033333333336,150.0939457202505
17.344066666666667,150.169133192389
17.376233333333335,149.52182952182952
17.408133333333335,149.1167192429022
17.456133333333334,148.7904255319149
17.48796666666667,148.27906976744185
17.52,147.9194560669456
17.55206666666667,148.20863309352518
17.58416666666667,148.04008221993834
17.6161,148.28928199791883
17.6481,148.84332281808622
17.6801,148.762460233298
17.71216666666667,148.72486772486772
17.744133333333334,148.74763406940062
17.77606666666667,149.0583864118896
17.823900000000002,148.73188405797103
17.856,149.260103626943
17.888166666666667,149.40292275574112
17.920033333333333,149.26826722338203
17.952,149.89719626168224
17.9841,150.56976744186048
18.016233333333336,149.75953389830508
18.048066666666667,149.93788819875778
18.080066666666667,149.9504132231405
18.1121,149.89512711864407
18.159933333333335,151.0380658436214
18.192,150.95169578622816
18.2241,150.92179353493222
18.25603333333333,151.76642335766425
18.2881,152.0134436401241
18.32,151.7917098445596
18.352133333333335,152.4767801857585
18.384033333333335,152.83264033264035
18.416133333333335,152.28865979381445
18.447933333333335,152.61323681489142
18.480133333333335,152.8191161356629
18.528033333333333,152.4896694214876
18.559900000000003,152.66978193146417
18.592066666666668,152.64607329842934
18.624133333333333,153.00831600831603
18.656200000000002,153.1319587628866
18.688133333333333,153.26722338204593
18.720033333333333,153.13465553235906
18.752066666666668,153.29448491155048
18.784133333333333,153.34458077709613
18.816066666666668,153.1456611570248
18.848066666666668,153.01143451143452
18.896,153.75883575883577
18.9279,153.6008316008316
18.959933333333336,153.56503642039544
18.9921,153.58204334365323
19.0241,153.46830265848672
19.0561,153.5573604060914
19.0881,153.16599597585514
19.12016666666667,153.64097363083164
19.152066666666666,153.88492871690426
19.1842,152.53488372093025
19.232,153.47594677584442
19.263933333333334,153.4728370221328
19.296133333333334,153.69535113748762
19.328033333333334,153.5952380952381
19.360033333333334,153.29184100418408
19.39206666666667,153.69230769230768
19.424133333333334,153.8946830265849
19.4561,153.54291623578078
19.488,152.61697722567288
19.52,152.8018292682927
19.55206666666667,153.95723014256617
19.6,153.09238578680203
19.632133333333336,153.0040609137056
19.663966666666667,153.57083764219234
19.6962,152.92041884816754
19.728033333333336,152.5539714867617
19.760133333333336,153.24276859504133
19.791966666666667,153.805924412666
19.824133333333336,153.2408376963351
19.8561,153.13453389830508
19.888166666666667,153.10122699386505
19.920033333333333,153.1281779661017
19.96806666666667,153.59692307692308
19.99996666666667,154.12435233160622
20.031933333333335,153.8908523908524
20.064033333333334,153.76057791537667
20.095933333333335,153.63759086188992
20.128,153.8715313463515
20.159933333333335,154.48905109489053
20.1922,153.64271047227928
20.224233333333334,153.04206098843324
20.2561,153.5146137787056
20.304000000000002,153.31670061099794
20.336066666666667,153.4891416752844
20.367966666666668,153.33677685950414
20.400166666666667,153.03222453222455
20.432033333333333,153.69158878504672
20.464066666666664,153.98856548856548
20.496000000000002,153.6893704850361
20.528166666666667,153.8898128898129
20.560033333333333,153.8639175257732
20.592066666666668,153.96153846153848
20.624033333333333,153.27868852459017
20.6719,153.51124744376278
20.7042,153.12112112112112
20.736066666666666,153.31059063136456
20.768066666666666,152.79710144927537
20.800066666666666,153.19312436804853
20.8321,154.07084188911705
20.864066666666666,153.81172839506175
20.896133333333335,153.622
20.928,153.49087221095334
20.960066666666666,153.4817073170732
20.992166666666666,153.5389344262295
21.040100000000002,153.46209761163033
21.072066666666668,153.29061553985872
21.104066666666668,152.7703109327984
21.136033333333334,152.7889812889813
21.168100000000003,153.1767151767152
21.1999,152.65946502057614
21.232,152.74163179916317
21.264,153.07430340557275
21.296166666666668,153.02928870292885
21.328033333333334,153.23284823284826
21.375966666666667,153.25545171339564
21.408,154.13471502590673
21.439966666666667,154.1318795430945
21.4722,153.43865030674849
21.504166666666666,153.2052578361982
21.535966666666667,153.03099173553719
21.568133333333336,152.7719298245614
21.6001,153.73367346938778
21.632033333333336,153.71671671671672
21.663933333333333,153.40103092783505
21.696066666666667,153.8022312373225
21.74396666666667,153.87448979591838
21.775933333333334,153.45333333333335
21.80806666666667,153.0753564154786
21.84,153.36902286902287
21.872033333333334,153.5252837977296
21.9041,153.98232848232848
21.9362,153.6251298026999
21.968033333333334,153.7285861713106
22.0001,153.64656964656965
22.0321,153.67755532139094
22.06426666666667,153.8276220145379
22.112133333333336,152.6880341880342
22.144066666666667,153.17857142857142
22.176000000000002,153.0283613445378
22.208066666666667,153.71547248182762
22.240166666666667,153.81920326864147
22.272166666666667,153.84315684315683
22.304033333333333,154.18965517241378
22.336166666666667,153.9351851851852
22.3682,154.078431372549
22.399933333333333,153.60645812310798
22.4482,153.1738683127572
22.48,153.51131687242798
22.51206666666667,154.1049896049896
22.544033333333335,154.27772020725388
22.5762,154.19896373056994
22.60806666666667,153.98744769874475
22.640033333333335,153.8399581589958
22.671933333333335,153.9628482972136
22.7042,154.50052687038988
22.735966666666666,153.956783919598
22.768033333333335,153.8297435897436
22.816133333333333,153.79543094496364
22.847933333333334,153.82120582120584
22.88013333333333,153.54300518134716
22.912033333333333,154.08032955715757
22.944066666666668,152.9773429454171
22.976000000000003,152.5122448979592
23.008166666666668,153.72849740932642
23.040033333333334,153.8507157464213
23.072000000000003,153.78504672897196
23.1039,153.3097435897436
23.152033333333335,153.25074925074924
23.184033333333335,153.29803921568626
23.216233333333335,153.72901921132458
23.248066666666666,153.94665271966525
23.280066666666666,153.10845771144278
23.312033333333336,153.88615384615386
23.344133333333335,153.6902564102564
23.376133333333335,153.5784708249497
23.408066666666667,153.27572016460906
23.4399,153.61947791164658
23.4721,154.12140575079874
23.51996666666667,154.41975308641977
23.552133333333334,154.57008368200835
23.58396666666667,153.93597560975613
23.616033333333334,153.92456676860348
23.648200000000003,154.15462868769075
23.680033333333334,154.04795918367347
23.71206666666667,154.00715015321757
23.744,154.2186858316222
23.77616666666667,153.37751004016062
23.80816666666667,153.5969696969697
23.84006666666667,153.34194214876032
23.887966666666667,153.12086776859505
23.919966666666667,152.67109295199182
23.951933333333333,153.0978809283552
23.984066666666667,153.40706126687434
24.015933333333333,153.78942014242116
24.048,154.05246913580248
24.079933333333333,153.2962577962578
24.112166666666667,153.1179487179487
24.144033333333333,153.0030456852792
24.1761,153.2558375634518
24.22406666666667,154.1502057613169
24.25606666666667,154.08499475341029
24.2881,153.2294056308655
24.320133333333334,153.19722497522298
24.35206666666667,153.93599160545645
24.383933333333335,153.79331941544885
24.4161,154.23824130879348
24.448033333333335,154.04004106776182
24.47996666666667,154.70938446014128
24.51206666666667,153.71807967313586
24.5442,153.8875
24.592000000000002,153.5638629283489
24.624200000000002,153.31083844580778
24.656000000000002,153.28079331941544
24.688100000000002,152.8464773922187
24.720033333333333,153.66189989785497
24.752266666666667,153.43600416233093
24.784033333333333,152.8875128998968
24.816166666666668,152.59654471544718
24.848033333333333,153.97641025641025
24.88013333333333,153.9742533470649
24.912100000000002,153.73926380368098
24.959933333333336,152.96468213925328
24.992033333333335,154.24233128834356
25.024,154.15757575757576
25.056133333333335,153.41344195519346
25.0881,153.8653846153846
25.120033333333335,153.1319587628866
25.152033333333335,152.63072227873855
25.184033333333335,153.2489539748954
25.216133333333335,153.37759336099586
25.2479,153.30566801619435
25.296000000000003,153.30840163934428
25.328033333333334,154.0373831775701
25.359900000000003,153.83047426841574
25.392166666666668,154.53947368421052
25.424033333333334,154.78636826042725
25.456133333333334,154.04476093591046
25.488,154.0843253968254
25.52006666666667,153.41744548286604
25.55206666666667,153.8384539147671
25.584033333333334,153.9312114989733
25.61606666666667,153.3266806722689
25.66393333333334,152.8385093167702
25.6961,152.76851851851853
25.728033333333336,153.34468524251804
25.759933333333336,153.3082400813835
25.792133333333336,153.76947040498442
25.8242,153.93678756476683
25.8562,154.30272452068618
25.888066666666667,154.26831785345715
25.92,153.59754851889684
25.952133333333336,154.04984423676012
25.984066666666667,154.17431192660553
26.032133333333334,153.95630081300814
26.06396666666667,153.88186528497408
26.0959,154.51373346897253
26.128033333333335,153.41958762886597
26.1601,153.656346749226
26.192033333333335,153.6521739130435
26.224133333333334,154.3423236514523
26.256,154.42752100840335
26.288133333333334,154.7808641975309
26.3199,154.8151950718686
26.368066666666667,154.48868312757202
26.399966666666668,154.05573080967403
26.431966666666668,154.35714285714286
26.464166666666667,154.66798810703668
26.496033333333333,154.10728744939271
26.527933333333333,154.11042311661507
26.560100000000002,153.43076923076924
26.592166666666667,153.74132492113563
26.624166666666667,154.47835051546392
26.656066666666668,153.8482972136223
26.688133333333333,153.38756476683938
26.735966666666666,154.0329218106996
26.7681,154.5577731092437
26.80006666666667,154.15376676986583
26.832,153.49638802889575
26.86406666666667,153.9225280326198
26.89606666666667,153.34303534303535
26.928133333333335,153.31372549019608
26.96006666666667,153.3024948024948
26.9921,153.46646026831783
27.024133333333335,154.0336048879837
27.0562,154.46913580246914
27.104100000000003,154.67353244078268
27.136066666666668,155.08206686930092
27.168100000000003,154.08190091001012
27.200033333333334,154.13353413654616
27.232166666666668,153.4963730569948
27.264166666666668,153.40748440748442
27.296000000000003,153.5586136595311
27.328000000000003,153.76615384615386
27.360100000000003,153.40689655172412
27.392100000000003,153.5530839231547
27.4401,152.79554655870444
27.472033333333336,153.1795665634675
27.504033333333336,153.8857142857143
27.536033333333336,153.48194014447884
27.5682,153.67801857585138
27.6,153.6532507739938
27.632033333333336,153.5825734549139
27.664033333333336,153.3416407061267
27.696166666666667,153.63141361256547
27.728066666666667,153.61562178828368
27.76,154.1078629032258
27.807933333333335,153.1378238341969
27.840033333333334,153.9443882709808
27.872133333333334,153.04531410916582
27.9041,153.1702564102564
27.93596666666667,153.5917525773196
27.9681,152.5644994840041
28.00006666666667,152.32982086406741
28.032,152.2325581395349
28.06396666666667,151.63465553235906
28.09606666666667,151.91304347826087
28.128133333333334,151.7914979757085
28.176033333333336,150.45035823950872
28.208066666666667,150.0141271442987
28.240000000000002,149.8658410732714
28.272033333333336,149.49898580121703
28.304033333333333,150.78810020876824
28.3362,150.31256281407036
28.368100000000002,150.49329205366357
28.400166666666667,150.2944214876033
28.431933333333333,150.5702479338843
28.464233333333336,150.90805785123968
28.512033333333335,151.61919504643961
28.544033333333335,151.7564499484004
28.5761,151.34826883910387
28.608,151.58402489626556
28.640133333333335,151.37128205128204
28.672033333333335,151.56140350877192
28.704133333333335,151.1153846153846
28.736133333333335,151.45325203252034
28.768133333333335,150.75553319919518
28.800033333333335,151.03215767634856
28.83206666666667,150.88087774294672
28.879966666666668,150.66837256908906
28.912000000000003,151.13214990138067
28.944000000000003,151.36590436590438
28.976100000000002,150.97427983539097
29.008033333333334,151.1087398373984
29.03996666666667,151.8062248995984
29.072000000000003,151.64499484004128
29.104033333333334,151.420942408377
29.136166666666668,150.82016632016632
29.168033333333334,150.71207430340556
29.200066666666668,150.39684210526315
29.2481,150.38250790305582
29.280133333333335,150.14479166666666
29.312066666666666,150.53505154639177
29.34416666666667,149.8839835728953
29.376133333333335,150.2973821989529
29.408133333333335,150.20714285714288
29.4402,150.21900826446281
29.472,151.0123711340206
29.503966666666667,150.76986584107325
29.5362,150.66357069143444
29.584033333333334,150.3065015479876
29.616033333333334,151.09706774519717
29.648,151.28950050968402
29.680033333333334,151.19327731092437
29.712,151.47574819401444
29.744133333333334,150.64462809917356
29.77606666666667,150.9061855670103
29.80806666666667,151.2589098532495
29.839966666666665,151.45528455284554
29.87216666666667,151.03917525773196
29.9041,150.77835051546393
29.952033333333336,151.07179487179488
29.984,150.76962809917356
30.016166666666667,150.94189602446485
30.048166666666667,151.12626262626262
30.080033333333336,151.14545454545456
30.112000000000002,150.85311871227364
30.144000000000002,150.69348268839101
30.1762,150.27272727272728
30.208266666666667,151.28453608247423
30.240033333333336,150.82762096774192
30.272033333333336,151.52953367875648
30.31996666666667,151.30864197530866
30.351933333333335,150.53333333333333
30.384033333333335,150.53948717948717
30.4161,151.71634121274408
30.448033333333335,150.25357873210635
30.48006666666667,150.46849593495938
30.512133333333335,149.72410256410257
30.5441,149.797507788162
30.576,149.68743509865004
30.608033333333335,150.39630390143736
30.655933333333333,150.17831813576495
30.688100000000002,150.16305469556244
30.720066666666668,150.27015706806284
30.752000000000002,151.07312049433574
30.78386666666667,150.09426229508196
30.816100000000002,150.1723779854621
30.847966666666668,150.09733606557378
30.880000000000003,150.76264189886479
30.912100000000002,150.1283367556468
30.944133333333333,150.4517819706499
30.976133333333333,149.57304526748973
31.024,149.87014314928427
31.055933333333336,150.0124352331606
31.088,149.71001031991742
31.1199,150.07357512953368
31.15206666666667,150.2130977130977
31.184,151.16067653276957
31.216233333333335,150.8907388137357
31.247966666666667,150.94698544698545
31.280033333333336,151.0591286307054
31.311966666666667,150.5204918032787
31.35986666666667,150.7233606557377
31.391833333333334,150.25429184549355
31.42396666666667,149.86790505675953
31.456100000000003,150.71663244353184
31.488033333333334,149.54819277108433
31.51996666666667,150.17710583153348
31.55196666666667,149.9260823653643
31.58406666666667,150.0861344537815
31.616033333333334,150.50901378579005
31.64796666666667,150.0966386554622
31.680033333333334,150.12839248434236
31.728066666666667,150.25806451612905
31.76,150.39121338912133
31.792033333333336,150.3548046462513
31.8241,149.91917098445595
31.856033333333336,149.63966770508827
31.888033333333336,149.95933263816477
31.920133333333336,150.110992529349
31.951933333333336,150.3830897703549
31.983900000000002,150.37942122186496
32.01596666666667,150.3151832460733
32.04813333333333,149.83900928792568
32.09603333333334,150.58156779661016
32.127966666666666,150.42489270386267
32.159933333333335,150.8661899897855
32.192033333333335,150.54677754677755
32.224133333333334,151.03340292275573
32.25613333333334,150.87240663900414
32.28816666666667,150.18885448916407
32.32006666666667,150.4004214963119
32.3522,150.48340248962657
32.38406666666667,151.36067297581494
32.43196666666667,150.81092436974788
32.464,150.4947807933194
32.4959,150.60850599781898
32.52796666666667,151.1172839506173
32.56006666666667,150.99588477366257
32.59206666666667,151.48012552301253
32.6241,151.79913137893595
32.65603333333333,151.68454258675078
32.688233333333336,151.7227414330218
32.72003333333333,151.15562565720293
32.75196666666667,151.22980062959078
32.799933333333335,150.85553278688525
32.831966666666666,150.4925847457627
32.8641,150.97709923664124
32.896033333333335,149.9968287526427
32.92796666666667,149.92667375132837
32.96006666666667,150.34561213434452
32.99213333333334,150.05229455709713
33.02413333333333,150.82608695652175
33.056000000000004,150.7108559498956
33.088033333333335,151.0323590814196
33.120133333333335,150.821503131524
33.168033333333334,150.28068303094986
33.20006666666667,150.48549946294307
33.232033333333334,150.77557411273486
33.26406666666667,150.0506329113924
33.296033333333334,150.76694915254237
33.32816666666667,150.88622129436325
33.360033333333334,150.9989539748954
33.392,150.62072538860102
33.42406666666667,150.48167539267018
33.456133333333334,150.69533678756477
33.50406666666667,151.12367864693448
33.536100000000005,151.2012257405516
33.56803333333333,150.66321243523316
33.59996666666667,151.0646186440678
33.632133333333336,150.56762513312034
33.66396666666667,150.25450689289502
33.695933333333336,150.49190938511325
33.72813333333333,151.12370062370064
33.7601,150.61297071129707
33.79206666666667,151.22546972860124
33.82406666666667,150.74074074074076
33.87206666666667,150.9582463465553
33.904,151.1222797927461
33.93606666666667,151.29853862212943
33.968133333333334,151.00106044538708
34.0,151.19057815845827
34.03203333333334,150.90231092436974
34.0641,151.13255567338283
34.0962,151.20464135021095
34.128033333333335,150.73668032786887
34.15996666666667,150.03347280334728
34.191966666666666,150.51694915254237
34.23996666666667,151.85090521831737
34.27203333333333,151.09732620320855
34.30426666666667,151.0930962343096
34.33606666666667,151.53961456102783
34.368033333333344,152.11566771819136
34.400133333333336,152.1116910229645
34.4321,152.021875
34.46396666666667,151.27156549520768
34.49606666666667,151.41071428571428
34.52816666666667,151.20084566596196
34.575966666666666,151.17622950819674
34.6081,150.46751863684773
34.639900000000004,150.75510204081633
34.6721,151.0042780748663
34.704100000000004,150.71008403361344
34.7361,150.89197860962568
34.767966666666666,150.70247046186896
34.800000000000004,150.87580299785867
34.831900000000005,150.7180043383948
34.864000000000004,151.13862433862434
34.896033333333335,151.35135135135135
34.94396666666667,151.63453389830508
34.9759,151.94450373532553
35.00806666666667,151.1350210970464
35.04016666666667,151.30979978925183
35.07203333333334,151.14634146341464
35.10416666666667,151.0827147401909
35.13603333333334,151.20020746887965
35.16816666666667,150.8039003250271
35.2,151.15352697095435
35.232033333333334,151.82439537329128
35.26403333333334,151.30052356020943
35.31203333333333,151.059765208111
35.344100000000005,152.08152734778122
35.3761,151.58761804826864
35.408,151.75862068965517
35.439933333333336,151.70846394984326
35.472,151.60965372507872
35.50403333333333,150.80692549842604
35.536100000000005,151.25052854122623
35.56803333333333,150.87588294651866
35.6,151.65299684542586
35.648066666666665,151.7739221871714
35.68006666666667,151.51626442812173
35.71203333333334,151.15861344537814
35.7441,150.7557251908397
35.77603333333334,150.7257900101937
35.808166666666665,151.58254468980022
35.840133333333334,151.7806925498426
35.872033333333334,151.7724425887265
35.904066666666665,151.006309148265
35.93613333333334,150.53048128342246
35.96803333333334,151.15360169491527
36.01606666666667,150.9106566200215
36.04816666666667,151.0447284345048
36.08006666666667,151.04907306434023
36.112,151.13582887700534
36.144133333333336,151.1470588235294
36.176033333333336,152.07786885245903
36.2081,150.89119170984455
36.24006666666667,151.31151003167898
36.272200000000005,151.33641975308643
36.30406666666667,151.43266171792155
36.33593333333334,151.2398753894081
36.38393333333334,151.34805467928496
36.416000000000004,151.29149377593362
36.4482,151.35676251331205
36.4799,150.74919957310567
36.51193333333333,150.89270386266094
36.544000000000004,151.40376569037656
36.576233333333334,151.5646186440678
36.60816666666667,151.88888888888889
36.64,151.66560170394038
36.672066666666666,151.48053278688525
36.72,151.61818181818182
36.75196666666667,151.3533123028391
36.784,151.63778705636742
36.81613333333333,151.12680412371134
36.84816666666667,150.84121976866456
36.87996666666667,150.69400630914825
36.91213333333334,150.76445846477392
36.94406666666667,150.926906779661
36.976,151.30165289256198
37.008,151.08474576271186
37.0401,151.83089770354906
37.088,150.89148073022312
37.12003333333333,151.125
37.152,151.58149316508937
37.184000000000005,151.19914802981896
37.21633333333334,151.4193548387097
37.24803333333333,151.19114470842334
37.280100000000004,151.2941176470588
37.31203333333333,150.98266522210184
37.344199999999994,150.81493506493507
37.376133333333335,150.86344537815125
37.40806666666667,151.08290155440415
37.456,151.3653444676409
37.4881,150.64097148891236
37.52006666666667,150.47497337593185
37.5521,150.2325581395349
37.584133333333334,150.6994764397906
37.615966666666665,150.39251336898397
37.647933333333334,151.03560528992878
37.6801,150.8067484662577
37.712133333333334,150.82032085561497
37.7441,150.35179487179488
37.79206666666667,151.08225108225108
37.8241,150.77860962566845
37.856100000000005,150.44670050761422
37.88816666666667,151.19151138716356
37.920033333333336,150.53838065194532
37.95206666666667,150.38275499474238
37.98416666666667,150.4351851851852
38.0161,150.4589823468328
38.04806666666667,150.49421661409042
38.08,150.88786008230454
38.11206666666667,150.89304812834226
38.159933333333335,151.20966084275437
38.19206666666667,149.85758196721312
38.2241,150.36656282450676
38.256,150.49106203995794
38.288133333333334,150.91514500537056
38.320166666666665,150.63435194942042
38.3521,150.85758835758836
38.38406666666667,151.32886597938145
38.41616666666667,151.24691358024694
38.44813333333334,151.0030864197531
38.480000000000004,151.17938144329898
38.52803333333333,150.84156378600824
38.55996666666667,151.59558823529412
38.5921,151.27928870292885
38.62416666666667,150.765737874097
38.656099999999995,150.83711340206185
38.68803333333334,150.3652445369407
38.72,150.7175732217573
38.7521,150.7409700722394
38.78406666666667,151.20966084275437
38.816,150.91649269311063
38.86396666666667,150.81072555205046
38.895966666666666,151.1077235772358
38.927933333333335,151.14226375908618
38.960166666666666,150.95068205666317
38.99203333333333,151.404984423676
39.02413333333334,151.33717277486912
39.056133333333335,151.01995798319328
39.0882,151.39979123173276
39.120066666666666,151.26200417536532
39.152,150.85355648535563
39.18396666666667,150.3786610878661
39.23196666666667,150.39938080495355
39.26416666666667,150.6435331230284
39.29596666666667,150.68282402528976
39.328,150.7400611620795
39.35993333333334,151.02277432712216
39.392133333333334,151.2184265010352
39.4241,151.4351851851852
39.45596666666667,151.18399168399168
39.48806666666667,151.31440588853837
39.520133333333334,152.13389121338912
39.56796666666667,151.68443496801706
39.600033333333336,150.74813233724655
39.63196666666667,150.4845250800427
39.664,151.00953389830508
39.69606666666667,150.96033402922754
39.72816666666667,150.9529411764706
39.7601,150.32954545454547
39.79196666666667,150.66738197424894
39.8241,150.7048503611971
39.85613333333333,151.23906083244398
39.888000000000005,151.23440860215052
39.9362,151.8876288659794
39.968,151.1997950819672
40.0,151.09719222462203
40.032133333333334,150.51464435146443
40.064166666666665,150.20876826722338
40.09603333333334,150.39769150052467
40.1281,150.31276150627613
40.16016666666667,151.2330905306972
40.19206666666667,150.8173374613003
40.22396666666667,150.77546777546777
40.25606666666667,150.34728033472803
40.304,150.2608695652174
40.33593333333334,150.57521186440678
40.368100000000005,151.36924686192467
40.4,151.40252897787144
40.43193333333333,150.9298429319372
40.46406666666667,151.04291845493563
40.49613333333333,150.94130202774815
40.5281,150.41737288135593
40.56,150.1135646687697
40.59206666666667,150.30543933054392
40.639966666666666,151.4092373791622
40.672066666666666,150.67689161554193
40.704100000000004,151.28762886597937
40.736000000000004,151.09748427672957
40.76806666666667,150.7161152614728
40.800133333333335,150.6502100840336
40.832,150.99382716049385
40.86403333333334,151.30745658835548
40.89613333333334,151.02674897119343
40.92813333333333,151.125
40.960033333333335,150.4813233724653
41.00806666666667,150.03033472803347
41.03996666666667,150.62264150943398
41.071933333333334,150.506922257721
41.1041,150.602523659306
41.13623333333334,150.29598308668076
41.168,150.20609884332282
41.20006666666667,150.14616193480546
41.2319,150.54506892895017
41.2642,150.89882854100108
41.29613333333334,150.8751345532831
41.32806666666667,150.9353813559322
41.37603333333333,150.95785036880926
41.40806666666667,150.93305439330544
41.44016666666667,151.05543933054392
41.47213333333333,150.93375394321765
41.503933333333336,150.79284963196633
41.53606666666667,150.81940144478844
41.56806666666667,150.6356993736952
41.600033333333336,151.40805785123968
41.632000000000005,151.59286463798531
41.66406666666667,151.74553101997896
41.71206666666667,151.47095435684648
41.74406666666667,151.21784232365144
41.776133333333334,152.03405572755418
41.80813333333334,151.65077720207253
41.84,151.34102833158448
41.87206666666667,151.53347064881564
41.90416666666667,151.02361396303903
41.93606666666667,151.9330587023687
41.968133333333334,151.6309148264984
41.999966666666666,151.80306122448982
42.03216666666667,152.0513874614594
42.08006666666667,151.52482269503548
42.1119,151.78549540347294
42.144133333333336,151.2396694214876
42.176033333333336,152.03523316062174
42.20806666666667,151.3254861821904
42.240100000000005,151.32248219735504
42.27206666666667,151.38382804503584
42.30406666666667,151.86302780638516
42.33606666666667,150.87909836065575
42.368033333333344,150.34215885947046
42.4,150.5943204868154
42.448,150.46002076843197
42.480000000000004,151.0709939148073
42.51206666666666,151.40918580375782
42.544133333333335,151.00835073068893
42.57606666666668,151.40273396424814
42.608133333333335,150.77720207253884
42.64006666666667,150.7367303609342
42.672133333333335,151.41012396694217
42.70393333333334,150.95688748685595
42.736133333333335,151.1213047910296
42.78396666666667,150.72066458982346
42.81596666666667,150.41649484536083
42.8482,150.5774058577406
42.88006666666667,150.60230849947536
42.91206666666667,150.7264248704663
42.94406666666667,150.68933054393304
42.9762,151.04206098843324
43.00816666666667,151.22557172557174
43.0401,150.94536082474227
43.0721,150.52440290758048
43.1042,150.83694530443756
43.152033333333335,150.66770508826582
43.184000000000005,150.75597092419522
43.216,150.35073068893527
43.24803333333333,150.76843198338526
43.28,150.65786802030456
43.312133333333335,150.86188992731047
43.34396666666667,150.98041237113404
43.376000000000005,151.08618899273105
43.408,150.97912317327766
43.4401,151.38114754098362
43.472,151.2125902992776
43.5201,151.06666666666666
43.55196666666667,150.9979633401222
43.58403333333334,151.56666666666666
43.6162,151.6130346232179
43.647933333333334,151.10010319917438
43.6801,151.36240913811008
43.712,151.1146694214876
43.74413333333334,150.95463917525774
43.77616666666667,151.13505154639176
43.808,151.52341311134236
43.855900000000005,151.5213764337852
43.88806666666667,151.58333333333331
43.91996666666667,151.9651282051282
43.95206666666667,151.88477366255145
43.984,151.6884735202492
44.01603333333333,151.84071729957805
44.04793333333333,152.68865979381442
44.08003333333333,152.66035751840167
44.11213333333333,151.58792924037462
44.14406666666667,151.33021806853583
44.17616666666667,151.27492130115425
44.224000000000004,151.04616998950684
44.2562,150.96618852459017
44.288133333333334,151.22301425661914
44.320100000000004,151.1686991869919
44.352000000000004,152.27263374485597
44.384166666666665,151.51184346035015
44.415933333333335,151.453044375645
44.448,151.85595854922278
44.480000000000004,151.49031600407747
44.512166666666666,151.4964610717897
44.5441,151.2936427850656
44.5921,151.16822429906543
44.62403333333334,151.22845275181723
44.65606666666667,150.56485355648533
44.68803333333334,150.75745118191162
44.72016666666667,150.97775530839232
44.75206666666667,151.41546391752578
44.78416666666667,150.85030549898167
44.81613333333333,150.61377870563672
44.84806666666667,150.7983367983368
44.8801,150.9659442724458
44.9279,150.28995901639345
44.95993333333333,150.34883720930233
44.992000000000004,151.00702811244977
45.024100000000004,151.05864509605664
45.05603333333334,150.82197355035603
45.088033333333335,151.36045314109165
45.120066666666666,150.42464358452136
45.1522,150.29815573770492
45.18403333333334,150.5671794871795
45.2162,152.375
45.2481,151.23455497382201
45.29593333333334,151.52263374485597
45.32796666666667,151.24974515800204
45.3601,151.53080082135523
45.39196666666667,152.00311526479751
45.42406666666667,152.10010319917438
45.45603333333334,151.1802443991853
45.4881,151.6274309109519
45.52003333333334,151.99076923076922
45.55196666666667,151.4313524590164
45.584133333333334,151.4479495268139
45.61616666666667,151.48102564102564
45.664,151.68177136972193
45.6959,151.52881698685542
45.728033333333336,152.36008230452677
45.76003333333333,151.8951194184839
45.79206666666667,152.04187946884576
45.824133333333336,151.78844169246645
45.856033333333336,151.95162986330178
45.88806666666667,151.97948717948717
45.92016666666667,151.7264344262295
45.95203333333333,151.844169246646
46.00006666666667,151.85831622176593
46.03196666666667,151.48125
46.063966666666666,151.71473029045643
46.0961,151.31727748691102
46.12806666666667,151.54487856388593
46.159933333333335,151.78887744593203
46.192,151.71820956256357
46.2239,151.80360721442884
46.256233333333334,151.894578313253
46.28803333333334,151.5316973415133
46.320033333333335,152.56710393541877
46.36796666666667,152.00504032258064
46.3999,151.74108053007137
46.432100000000005,151.4549180327869
46.4639,151.79814624098867
46.496100000000006,151.48634984833166
46.52803333333333,151.6267748478702
46.56006666666667,151.64859437751002
46.59216666666667,151.58392675483213
46.624,151.47782258064515
46.6563,151.69467213114754
46.6882,151.49495967741936
46.73603333333334,151.9918200408998
46.768100000000004,151.41855670103092
46.79996666666667,151.48340248962657
46.83206666666667,151.10542476970318
46.864000000000004,151.23779854620975
46.8962,151.3452868852459
46.928066666666666,151.55532786885246
46.95993333333334,151.9959100204499
46.9921,151.34496919917865
47.024166666666666,150.8672032193159
47.072,150.62164948453608
47.1041,151.53056994818652
47.136,150.96823770491804
47.168033333333334,151.42694300518133
47.20003333333334,151.91076923076923
47.23193333333334,151.45389344262296
47.2641,151.2142857142857
47.296,151.57186858316223
47.32816666666667,151.21570680628272
47.36006666666667,151.14462809917356
47.39196666666667,150.88785046728972
47.43996666666667,151.45567010309279
47.471833333333336,151.42067553735927
47.503933333333336,151.45699481865284
47.536100000000005,151.13683127572017
47.56803333333333,151.45314109165807
47.600033333333336,151.18724279835394
47.632000000000005,152.22863027806383
47.66416666666667,151.49487704918033
47.69603333333333,151.71207430340556
47.728033333333336,151.36344755970924
47.776,151.59652706843718
47.80793333333334,151.38696109358568
47.8401,151.6193952033368
47.872033333333334,151.10416666666666
47.90396666666667,151.12460732984295
47.93593333333334,151.5094142259414
47.96816666666667,151.6179540709812
48.0,151.68788501026694
48.032,151.63922764227644
48.064033333333334,151.80384226491407
48.09616666666667,151.22918807810893
48.14396666666667,152.119341563786
48.176100000000005,151.93918245264206
48.20803333333333,151.80307692307693
48.24,151.384778012685
48.27206666666667,151.45906735751294
48.30413333333333,151.10515463917525
48.336000000000006,151.16804979253112
48.36796666666667,150.34076433121018
48.39996666666667,151.3504016064257
48.43213333333333,150.74530271398746
48.46396666666667,151.21721311475412
48.511966666666666,151.61307053941908
48.544000000000004,151.22745901639345
48.576033333333335,151.6639260020555
48.608200000000004,151.41718426501038
48.64013333333334,151.85977482088026
48.67203333333334,152.16967871485943
48.70413333333334,151.67321613236817
48.736066666666666,151.58316430020284
48.767966666666666,151.52583586626142
48.800066666666666,151.43820224719101
48.848,151.71060762100927
48.88,150.92729188619597
48.912,151.28088701161562
48.94406666666667,151.46787148594376
48.976,151.73972602739724
49.00803333333334,151.50203665987777
49.040033333333334,151.48736097067746
49.0722,151.24637681159422
49.10406666666667,151.82474226804123
49.13603333333334,150.9742268041237
49.16806666666667,150.81103166496425
49.21593333333333,150.94507772020725
49.248200000000004,151.05225409836066
49.27996666666667,151.1103238866397
49.31206666666667,150.89785495403473
49.34413333333334,151.10791366906474
49.3761,151.19116135662898
49.408233333333335,152.21356275303643
49.44006666666667,152.1069246435845
49.472033333333336,152.01113360323887
49.50416666666667,152.15041493775934
49.536,152.08091286307055
49.58403333333334,152.34002111932418
49.61596666666667,153.05722891566265
49.64803333333334,152.23045267489712
49.68006666666667,151.5367114788004
49.712133333333334,151.16992790937178
49.74413333333334,152.1118881118881
49.776133333333334,152.11917098445596
49.80806666666667,151.91808191808192
49.84016666666667,151.9889669007021
49.8721,152.415991902834
49.92013333333333,152.0141129032258
49.951933333333336,151.96774193548387
49.98406666666667,152.50153846153847
50.0161,152.7196652719665
50.04786666666667,153.21644120707597
50.08006666666667,152.66460905349797
50.111900000000006,152.5674846625767
50.144200000000005,152.47741273100615
50.176100000000005,151.96919917864477
50.20806666666667,151.86128364389236
50.23996666666667,153.2067932067932
50.28803333333334,151.96855983772818
50.31993333333334,152.63350253807107
50.352133333333335,152.39311043566363
50.384033333333335,152.53846153846155
50.41603333333334,152.65195071868584
50.44793333333334,153.17647058823528
50.48003333333334,153.42077649527806
50.512166666666666,153.8627254509018
50.5441,153.10515873015873
50.57606666666668,153.18533604887983
50.60823333333334,152.3725690890481
50.65603333333333,152.9313524590164
50.688233333333336,152.81568228105905
50.720000000000006,152.44270833333334
50.751933333333334,152.44938016528926
50.78403333333333,151.91344195519346
50.816,152.0234693877551
50.84806666666667,151.9759916492693
50.879933333333334,152.35699588477368
50.91203333333333,152.01255230125523
50.94423333333334,152.00512295081967
50.99216666666667,151.9297520661157
51.02406666666667,151.98771750255887
51.056066666666666,152.1487854251012
51.08806666666667,151.97049847405899
51.1201,151.44955044955046
51.152,151.6680412371134
51.1841,151.15384615384616
51.21613333333334,151.28542094455852
51.248066666666666,151.95884773662553
51.280033333333336,151.5269035532995
51.31203333333334,151.03036437246965
51.3599,151.89408099688472
51.392,151.5162932790224
51.42416666666667,151.13184584178498
51.4562,152.02780638516992
51.4881,152.0913811007269
51.520133333333334,151.55566905005108
51.55216666666667,151.57814096016344
51.584,151.6032887975334
51.616,151.18775510204082
51.648133333333334,150.78708375378406
51.68016666666667,150.54095045500506
51.727900000000005,151.27057613168725
51.76003333333333,150.6914460285132
51.79206666666667,151.58367768595042
51.823933333333336,151.5142566191446
51.85596666666667,152.32551020408164
51.888000000000005,151.6578411405295
51.919900000000005,151.23702950152594
51.95203333333333,151.77337398373984
51.98406666666667,151.9455095862765
52.016133333333336,152.3253968253968
52.064033333333334,151.68490374873355
52.09596666666667,151.0964824120603
52.12813333333334,150.5
52.15996666666667,151.05728643216082
52.1921,152.19551934826882
52.22426666666667,151.5579268292683
52.2561,151.428
52.28806666666667,151.82866043613706
52.320100000000004,151.9798387096774
52.35203333333334,151.66734693877552
52.383966666666666,151.37163561076605
52.43203333333334,151.37551867219918
52.46393333333334,151.84008307372793
52.49593333333333,151.73381294964028
52.52816666666667,152.29938900203663
52.56,150.87731958762888
52.59193333333334,150.9298969072165
52.62393333333333,151.2
