Time,Signal_1
0.0,104.99667553191489
0.0670391061452514,105.06954059156703
0.1340782122905028,105.04960505529225
0.20111731843575423,105.01707779886148
0.2681564245810056,105.05128205128204
0.335195530726257,105.05444761000317
0.40223463687150846,105.20197515132207
0.4692737430167598,105.2303281299777
0.5363128491620112,105.18614173228346
0.6033519553072626,105.23091542603737
0.670391061452514,104.95598868280415
0.7374301675977654,105.0836513994911
0.8044692737430169,105.11731493099121
0.8715083798882682,105.06666666666666
0.9385474860335196,104.82926065162907
1.005586592178771,105.00287539936103
1.0726256983240223,104.87385970430952
1.1396648044692739,104.95671267252195
1.2067039106145252,104.9116365899191
1.2737430167597765,104.83947532792004
1.340782122905028,104.74952859836581
1.4078212290502794,104.78857142857143
1.4748603351955307,104.87751937984497
1.5418994413407823,104.70775835633242
1.6089385474860338,104.56804187192118
1.675977653631285,104.77149041434757
1.7430167597765365,104.75864178647905
1.8100558659217878,104.7503078817734
1.8770949720670391,104.79703429101019
1.9441340782122907,104.86708268330733
2.011173184357542,104.89587852494577
2.0782122905027935,104.863184079602
2.1452513966480447,104.86356589147287
2.212290502793296,104.85487387106821
2.2793296089385477,104.65777368905245
2.346368715083799,104.6561922365989
2.4134078212290504,104.55593220338983
2.480446927374302,104.59975331483194
2.547486033519553,104.48259788688625
2.6145251396648046,104.53715695343817
2.681564245810056,104.59338582677165
2.7486033519553073,104.83867953908441
2.815642458100559,104.74394785847299
2.8826815642458103,104.72509457755359
2.9497206703910615,104.71572011295889
3.016759776536313,104.67333743842364
3.0837988826815645,104.66604823747682
3.1508379888268156,104.74560049397962
3.2178770949720676,104.8240369799692
3.2849162011173187,104.77010785824345
3.35195530726257,104.65146379044684
3.4189944134078214,104.90723562152134
3.486033519553073,104.88475952529669
3.553072625698324,105.03128911138924
3.6201117318435756,104.9953285580816
3.687150837988827,105.10298792116974
3.7541899441340782,104.896148989899
3.82122905027933,104.82314410480349
3.8882681564245813,104.76305220883535
3.9553072625698324,104.79199006519714
4.022346368715084,104.76386292834891
4.089385474860335,104.70682730923694
4.156424581005587,104.852195423624
4.223463687150838,104.9465058750773
4.290502793296089,104.76964173475801
4.357541899441341,104.8367980142724
4.424581005586592,104.79321181646763
4.4916201117318435,104.76639600249844
4.5586592178770955,105.07706708268331
4.625698324022347,104.81622464898597
4.692737430167598,104.76424546023794
4.75977653631285,104.69115298626637
4.826815642458101,104.6108813235762
4.893854748603352,104.77742448330683
4.960893854748604,104.64256523105941
5.027932960893855,104.83149952845017
5.094972067039106,104.58115348250865
5.162011173184358,104.78558052434457
5.229050279329609,104.80946372239748
5.29608938547486,104.69721614013137
5.363128491620112,104.71486570893191
5.430167597765363,104.73075724524774
5.4972067039106145,104.6093023255814
5.5642458100558665,104.51042639277934
5.631284916201118,104.55951642901425
5.698324022346369,104.5196726471514
5.765363128491621,104.30198634388579
5.832402234636872,104.50935162094763
5.899441340782123,104.53704856787049
5.966480446927375,104.6272095959596
6.033519553072626,104.64077970297029
6.100558659217877,104.4710920770878
6.167597765363129,104.52209944751381
6.23463687150838,104.43254817987152
6.301675977653631,104.49063555419097
6.368715083798883,104.57599017500768
6.435754189944135,104.51667176506577
6.5027932960893855,104.52762430939225
6.5698324022346375,104.39073050951504
6.636871508379889,104.63044159098027
6.70391061452514,104.40263319044703
6.770949720670392,104.40256089943784
6.837988826815643,104.33034333436437
6.905027932960894,104.40199439077594
6.972067039106146,104.45975571562794
7.039106145251397,104.49067164179104
7.106145251396648,104.61182358461058
7.1731843575419,104.63468171840702
7.240223463687151,104.72104607721046
7.307262569832402,104.77982233502537
7.374301675977654,104.6305021698698
7.441340782122905,104.74171570145556
7.5083798882681565,104.73944099378882
7.5754189944134085,104.67217201620443
7.64245810055866,104.66391883322764
7.709497206703911,104.45218198700093
7.776536312849163,104.43599374021909
7.843575418994414,104.46930507946401
7.910614525139665,104.36204744069913
7.977653631284917,104.34660858743
8.044692737430168,104.36581569115816
8.11173184357542,104.42235441452723
8.17877094972067,104.56688700031476
8.245810055865922,104.60915934755332
8.312849162011174,104.38920454545456
8.379888268156424,104.35900621118013
8.446927374301676,104.311124883793
8.513966480446928,104.2438195302843
8.581005586592179,104.27503875968993
8.64804469273743,104.2243251628917
8.715083798882683,104.31100775193799
8.782122905027933,104.30924062214089
8.849162011173185,104.64241293532338
8.916201117318437,104.54258578431373
8.983240223463687,104.4851024208566
9.050279329608939,104.44348894348894
9.117318435754191,104.63071586250395
9.184357541899441,104.26656346749226
9.251396648044693,104.25543644716691
9.318435754189945,104.30564071122011
9.385474860335195,104.35135135135135
9.45251396648045,104.32451553368195
9.5195530726257,104.40384615384616
9.58659217877095,104.33497083205404
9.653631284916202,104.46279212792128
9.720670391061454,104.26103054612774
9.787709497206704,104.3376825100963
9.854748603351956,104.28179551122194
9.921787709497208,104.27590435315757
9.988826815642458,104.29832061068703
10.05586592178771,104.21227145955997
10.122905027932962,104.0598635235732
10.189944134078212,104.23008578431373
10.256983240223464,104.08376963350786
10.324022346368716,104.08869725900831
10.391061452513966,104.05032417412782
10.458100558659218,104.39881693648817
10.52513966480447,104.4016189290162
10.59217877094972,104.35486891385767
10.659217877094973,104.30848731600376
10.726256983240225,104.29316770186335
10.793296089385475,104.09907407407407
10.860335195530727,104.210102262163
10.927374301675979,104.23581059893384
10.994413407821229,104.19550492610837
11.061452513966481,103.9453246349798
11.128491620111733,103.99467918622847
11.195530726256983,103.97101449275361
11.262569832402235,103.90416024653314
11.329608938547487,104.1075
11.396648044692737,104.07857811038353
11.46368715083799,104.03114294612271
11.530726256983241,104.01087632069608
11.597765363128492,104.00841908325538
11.664804469273744,104.06163328197226
11.731843575418996,104.00345043914679
11.798882681564246,104.00189813350205
11.865921787709498,104.0103125
11.93296089385475,103.93732547316165
12.0,103.93761524277811
12.067039106145252,103.94728633811603
12.134078212290504,104.0815748031496
12.201117318435754,104.12562656641603
12.268156424581006,104.075329566855
12.335195530726258,104.28593897452028
12.402234636871508,104.1465625
12.46927374301676,104.20094043887148
12.536312849162012,104.18407960199005
12.603351955307263,104.18088418430884
12.670391061452515,104.15652979314603
12.737430167597767,104.10642258765125
12.804469273743017,104.0338028169014
12.87150837988827,104.1772033634382
12.93854748603352,104.37380801017164
13.005586592178771,104.52556818181819
13.072625698324023,104.41477272727273
13.139664804469275,104.08906882591094
13.206703910614525,104.32102628285357
13.273743016759777,104.109375
13.34078212290503,104.26202373516551
13.40782122905028,104.30843448490508
13.474860335195531,104.16282689912826
13.541899441340783,104.12865681031771
13.608938547486034,104.02799622522805
13.675977653631286,104.2454084863838
13.743016759776538,104.23654211526282
13.810055865921788,104.20709309689677
13.87709497206704,104.19787100814025
13.944134078212292,103.94858211280773
14.011173184357542,104.10686787804127
14.078212290502794,103.98661686896982
14.145251396648046,104.10356695869838
14.212290502793296,104.0824417872876
14.279329608938548,103.95319812792512
14.3463687150838,104.02808641975308
14.41340782122905,104.03313719417775
14.480446927374302,103.970163026761
14.547486033519554,103.98529411764706
14.614525139664805,103.99535171986366
14.681564245810057,104.02549751243781
14.748603351955309,103.83734567901234
14.815642458100559,103.98296686280582
14.88268156424581,103.82077205882352
14.949720670391063,104.03860294117646
15.016759776536313,104.06025957972805
15.083798882681565,104.0811227637261
15.150837988826817,104.25038592158073
15.217877094972067,104.28454773869346
15.28491620111732,103.99294045426642
15.351955307262571,104.01780233271946
15.418994413407821,104.07519950890116
15.486033519553073,104.10555728034771
15.553072625698325,104.33239259956099
15.620111731843576,104.0786308973173
15.687150837988828,104.25829457364341
15.75418994413408,104.3385053831539
15.82122905027933,104.13517761710153
15.888268156424582,104.1123388581952
15.955307262569834,104.03384042222912
16.022346368715084,104.29506670803599
16.089385474860336,104.34672435105067
16.156424581005588,103.99693251533743
16.22346368715084,103.96739792809264
16.29050279329609,104.10723114956735
16.35754189944134,104.15592387968077
16.424581005586592,104.09221374045802
16.491620111731844,104.33250311332503
16.558659217877096,104.3293897882939
16.62569832402235,104.26123334366285
16.692737430167597,104.18128292531763
16.75977653631285,104.45997536945814
16.8268156424581,104.47402597402598
16.893854748603353,104.61755678330263
16.960893854748605,104.61783439490446
17.027932960893857,104.54379562043796
17.0949720670391,104.54322111010009
17.162011173184357,104.66020910209103
17.22905027932961,104.50857317819964
17.29608938547486,104.73668001231907
17.363128491620113,104.58167701863354
17.430167597765365,104.59652333028362
17.497206703910614,104.54456654456655
17.564245810055866,104.53184323331293
17.631284916201118,104.50122473974281
17.69832402234637,104.44096165550822
17.76536312849162,104.33537895059834
17.832402234636874,104.40547341931425
17.899441340782122,104.45832051676408
17.966480446927374,104.41500622665006
18.033519553072626,104.4769990737882
18.100558659217878,104.39938366718027
18.16759776536313,104.45994993742178
18.234636871508382,104.46006289308175
18.30167597765363,104.42450229709034
18.368715083798882,104.38563912101516
18.435754189944134,104.28580171358628
18.502793296089386,104.30595611285267
18.56983240223464,104.22305529522023
18.63687150837989,104.15552099533436
18.70391061452514,104.2673730133998
18.77094972067039,104.2937713046173
18.837988826815643,104.29653480527446
18.9050279329609,104.11121295447602
18.972067039106147,104.11083969465649
19.0391061452514,104.13442017840664
19.106145251396647,104.10830544569515
19.1731843575419,104.15192950470981
19.24022346368715,104.15401102265768
19.307262569832403,104.3056592039801
19.374301675977655,104.38197424892704
19.441340782122907,104.23474759987612
19.508379888268156,104.25115848007414
19.575418994413408,104.3429802955665
19.64245810055866,104.28969103701438
19.70949720670391,104.40255292652553
19.776536312849164,104.33030682529743
19.843575418994416,104.31355402873204
19.910614525139664,104.2039372500769
19.977653631284916,104.33270969753663
20.044692737430168,104.27375152253349
20.11173184357542,104.2003665241295
20.178770949720672,104.50596512695014
20.245810055865924,104.45518723143032
20.312849162011172,104.34119069205198
20.379888268156424,104.33189655172414
20.446927374301676,104.08218759547815
20.51396648044693,104.01500306184936
20.581005586592177,104.24762196992943
20.648044692737432,104.19097651421507
20.71508379888268,104.10825521620805
20.782122905027933,104.11643220592637
20.849162011173185,104.04021771998791
20.916201117318437,103.86307922272049
20.98324022346369,104.05392156862744
21.05027932960894,103.99909365558912
21.11731843575419,104.00939678690513
21.18435754189944,103.97030593881223
21.251396648044693,104.26569608735214
21.318435754189945,104.10639587753865
21.385474860335197,104.27347062386433
21.45251396648045,104.31969696969696
21.519553072625698,104.20917597343797
21.58659217877095,104.0630303030303
21.6536312849162,104.10909090909091
21.720670391061454,104.0
21.787709497206706,103.98362147406733
21.854748603351958,104.0490909090909
21.921787709497206,103.99725860493452
21.988826815642458,103.94018856806129
22.05586592178771,103.85182963407318
22.122905027932962,103.93543588217793
22.189944134078214,103.88575712143927
22.256983240223466,103.88968183169789
22.324022346368714,103.9282713085234
22.391061452513966,104.03469937182172
22.45810055865922,104.15414663461539
22.52513966480447,104.3715763846622
22.592178770949722,104.31823635272944
22.659217877094974,104.1442483262325
22.726256983240223,104.11519607843137
22.793296089385475,104.10803408399269
22.860335195530727,104.36636729637658
22.92737430167598,104.10575757575758
22.99441340782123,104.07785888077859
23.061452513966483,104.08981851737927
23.12849162011173,104.2930614729154
23.195530726256983,104.2259835315645
23.262569832402235,104.2865890998163
23.329608938547487,104.28424242424242
23.39664804469274,104.31684981684981
23.46368715083799,104.3721495895409
23.53072625698324,104.38218303435696
23.59776536312849,104.28213069061628
23.664804469273744,104.3251246882793
23.731843575418996,104.32582536254242
23.798882681564248,104.38353658536586
23.8659217877095,104.41548862937921
23.932960893854748,104.34786613447959
24.0,104.43292307692307
24.067039106145252,104.49088662341674
24.134078212290504,104.4504170528267
24.201117318435756,104.44403444034441
24.268156424581008,104.39435755903098
24.335195530726256,104.57120838471023
24.40223463687151,104.55021432945499
24.46927374301676,104.48260073260073
24.536312849162012,104.5018337408313
24.603351955307264,104.48462484624847
24.670391061452516,104.31188725490196
24.737430167597765,104.17208878078443
24.804469273743017,104.26529376135674
24.87150837988827,104.13116250760804
24.93854748603352,104.19030192131747
25.005586592178773,104.03242424242424
25.072625698324025,104.08114630467573
25.139664804469273,103.9398246144542
25.206703910614525,104.14246741436799
25.273743016759777,104.06266947875866
25.34078212290503,104.14513700692562
25.40782122905028,104.19783197831978
25.474860335195533,104.3558394160584
25.54189944134078,103.92478010312405
25.608938547486034,104.01786795881284
25.675977653631286,104.10800970873785
25.74301675977654,104.06531599637134
25.81005586592179,104.11750527267249
25.87709497206704,104.23837209302324
25.94413407821229,104.24567788898999
26.011173184357542,104.26034793041391
26.078212290502794,104.1622846781505
26.145251396648046,104.10275007555153
26.212290502793298,104.08990825688073
26.27932960893855,104.06453576864537
26.3463687150838,104.03250536645201
26.41340782122905,104.10909640374736
26.480446927374302,104.06813321112129
26.547486033519554,104.04923076923077
26.614525139664806,104.1492354740061
26.68156424581006,104.06251924853711
26.748603351955307,103.90552147239265
26.81564245810056,104.12868217054265
26.88268156424581,104.22761760242793
26.949720670391063,104.12435547467395
27.016759776536315,104.05611161662118
27.083798882681567,104.11608775137113
27.150837988826815,104.06488781079442
27.217877094972067,103.80943683409437
27.28491620111732,104.04455895725978
27.35195530726257,104.02372262773723
27.418994413407823,104.15398660986001
27.486033519553075,104.15926261710487
27.553072625698324,104.20037163208423
27.620111731843576,104.07079914919477
27.687150837988828,104.24701561065197
27.75418994413408,104.05423522242536
27.82122905027933,104.31405964698722
27.888268156424584,104.42787878787878
27.955307262569832,104.42268351383875
28.022346368715084,104.38060825052695
28.089385474860336,104.3008423586041
28.156424581005588,104.35240963855422
28.22346368715084,104.54265475823837
28.290502793296092,104.45462934481698
28.35754189944134,104.50511310814998
28.424581005586592,104.25337423312884
28.491620111731844,104.33668494820232
28.558659217877096,104.44822303921569
28.62569832402235,104.39852398523986
28.6927374301676,104.2953081876725
28.75977653631285,104.40106117353308
28.8268156424581,104.60074976569821
28.893854748603353,104.34253296534806
28.960893854748605,104.37236962488564
29.027932960893857,104.2393893129771
29.09497206703911,104.06883947608894
29.162011173184357,104.09405169729057
29.22905027932961,104.12343415826459
29.29608938547486,104.17431761786601
29.363128491620113,103.85371111795504
29.430167597765365,104.08026030368764
29.497206703910617,103.73729596550662
29.564245810055866,103.92486255345143
29.631284916201118,104.39558417663294
29.69832402234637,104.12345679012346
29.76536312849162,104.17220172201722
29.832402234636874,104.25666666666666
29.899441340782126,104.26230012300124
29.966480446927374,104.28087831655992
30.033519553072626,104.17411121239743
30.100558659217878,104.25219763564716
30.16759776536313,104.31740718198418
30.234636871508382,104.44464555052791
30.301675977653634,104.21185410334347
30.368715083798882,104.23149558330795
30.435754189944134,104.31202435312025
30.502793296089386,104.40535605599513
30.56983240223464,104.18646153846154
30.63687150837989,104.14036163040147
30.703910614525142,104.1965654707145
30.77094972067039,104.22676013410545
30.837988826815643,104.12423500611995
30.9050279329609,103.99174311926605
30.972067039106147,103.78916589719914
31.0391061452514,103.88993902439024
31.10614525139665,103.82715674362089
31.1731843575419,103.78924992408139
31.24022346368715,103.73355562291604
31.307262569832403,103.75901788420734
31.374301675977655,103.7187595013682
31.441340782122907,103.99722821065599
31.50837988826816,103.93414634146342
31.575418994413408,103.75829528158296
31.64245810055866,103.85540334855405
31.70949720670391,103.88
31.776536312849164,103.89921544960772
31.843575418994416,103.94262043571648
31.910614525139668,104.1661594643944
31.977653631284916,103.987167736022
32.04469273743017,103.87560827250608
32.11173184357542,103.68682310469315
32.17877094972067,103.6681887366819
32.245810055865924,103.60740072202167
32.312849162011176,103.62537764350454
32.37988826815643,103.50194785735691
32.44692737430168,103.58171324422842
32.51396648044693,103.60934182590233
32.58100558659218,103.85292307692308
32.64804469273743,103.90969696969697
32.71508379888268,103.64875531268974
32.78212290502793,103.85822478036958
32.849162011173185,103.85604665438919
32.91620111731844,103.86446434084594
32.98324022346369,103.62132352941177
33.05027932960894,103.61018518518519
33.11731843575419,103.60868217054264
33.184357541899445,103.58800000000001
33.2513966480447,103.39297709923665
33.31843575418995,103.18881334981458
33.385474860335194,103.22109158186863
33.452513966480446,103.46322620519159
33.5195530726257,103.33720574747782
33.58659217877095,103.43588957055215
33.6536312849162,103.4742946708464
33.720670391061454,103.5310089478556
33.787709497206706,103.54142285186326
33.85474860335196,103.66646134893749
33.92178770949721,103.6981829380967
33.98882681564246,103.78484184152835
34.05586592178771,103.84822828472875
34.122905027932966,103.80426716141002
34.1899441340782,103.82013715710723
34.25698324022346,103.82630120110872
34.324022346368714,103.64689612784265
34.391061452513966,103.70717377860235
34.45810055865922,103.68349753694581
34.52513966480447,103.74992338338951
34.59217877094972,103.74808458473797
34.659217877094974,103.76821800367422
34.726256983240226,103.83271144278606
34.79329608938548,103.83542319749218
34.86033519553073,103.71794871794872
34.927374301675975,104.00646153846154
34.99441340782123,104.03327171903882
35.06145251396648,103.9418746195983
35.12849162011173,103.72590546347452
35.19553072625698,103.75527684307127
35.262569832402235,103.72766615146833
35.32960893854749,103.76984862527031
35.39664804469274,103.68753836709637
35.46368715083799,103.32246153846154
35.53072625698324,103.29838207840697
35.597765363128495,103.30024891101431
35.66480446927375,103.35806650246306
35.73184357541899,103.29821318545903
35.798882681564244,103.35333741579915
35.865921787709496,103.56462585034015
35.93296089385475,103.28602150537634
36.0,103.12595303446173
36.06703910614525,103.36582356570018
36.134078212290504,103.17455439459127
36.201117318435756,103.18954854669141
36.26815642458101,103.03141361256544
36.33519553072626,103.05085803432138
36.40223463687151,102.96778190830236
36.469273743016764,102.77931671283471
36.53631284916201,102.76896551724138
36.60335195530726,102.85864197530864
36.67039106145251,103.04548248309771
36.737430167597765,102.98094652735094
36.80446927374302,102.91770186335404
36.87150837988827,102.98486759142497
36.93854748603352,102.82548047117173
37.00558659217877,102.86411365040149
37.072625698324025,102.87573234659266
37.13966480446928,102.84448462929475
37.20670391061453,103.01423810966374
37.27374301675978,102.99476439790575
37.340782122905026,102.9481549252821
37.40782122905028,102.85889570552148
37.47486033519553,103.16754576481539
37.54189944134078,103.07105344454742
37.608938547486034,102.92086330935253
37.675977653631286,102.91181053287629
37.74301675977654,103.11219974715551
37.8100558659218,102.82319749216302
37.87709497206704,102.84203980099502
37.944134078212294,102.6445895522388
38.011173184357546,102.93087269314984
38.0782122905028,102.72291797119598
38.14525139664804,102.70491293532338
38.212290502793294,102.92854894554611
38.279329608938546,102.85292288557214
38.3463687150838,103.23850031505987
38.41340782122905,103.36326272526084
38.4804469273743,103.1701270529904
38.547486033519554,103.33375275243787
38.614525139664806,103.17683686176836
38.68156424581006,103.1923076923077
38.74860335195531,103.10109204368175
38.81564245810056,103.27179327521793
38.882681564245814,103.25373599003736
38.94972067039106,103.24782067247821
39.01675977653631,103.21711568938194
39.08379888268156,103.18421870146008
39.150837988826815,103.08155699721965
39.21787709497207,103.1688679245283
39.28491620111732,103.21818181818182
39.35195530726257,103.16458852867831
39.41899441340782,103.26807980049875
39.48603351955308,103.16385240775485
39.55307262569833,103.36621032980709
39.62011173184358,103.40687046958713
39.68715083798883,103.55684673366834
39.754189944134076,103.55235684909839
39.82122905027933,103.65018656716418
39.88826815642458,103.72196478220575
39.95530726256983,103.80222841225627
40.022346368715084,103.56704862186434
40.089385474860336,103.62126865671641
40.15642458100559,103.67167919799498
40.22346368715084,103.6197576887232
40.29050279329609,103.35125115848008
40.357541899441344,103.44375581035018
40.424581005586596,103.50294573643411
40.49162011173185,103.49361967009027
40.55865921787709,103.2326378075366
40.625698324022345,103.42226368159204
40.6927374301676,103.27828553419477
40.75977653631285,103.22274436090225
40.8268156424581,103.03266331658291
40.89385474860335,103.036783042394
40.960893854748605,103.1050200184786
41.02793296089386,103.10231124807396
41.09497206703911,103.21379310344828
41.162011173184354,103.43055118110236
41.22905027932961,103.31265586034912
41.296089385474865,103.31473354231976
41.36312849162011,103.40809391411801
41.43016759776536,103.2722480620155
41.497206703910614,103.24930491195552
41.564245810055866,103.1613204609156
41.63128491620112,103.35978835978837
41.69832402234637,103.51651462724126
41.76536312849162,103.57510065035615
41.832402234636874,103.52860696517413
41.899441340782126,103.52880400751408
41.96648044692738,103.25562057283646
42.03351955307263,103.30418604651163
42.10055865921788,103.33754234678165
42.167597765363126,103.43547890360333
42.23463687150838,103.34857318195766
42.30167597765363,103.35911434637549
42.36871508379888,103.33684210526316
42.435754189944134,103.35493827160494
42.502793296089386,103.43171260452152
42.56983240223464,103.14579496623695
42.63687150837989,103.07735321528425
42.70391061452514,103.21330845771143
42.770949720670394,103.17798449612404
42.837988826815646,103.26039726877715
42.9050279329609,103.54146956795964
42.97206703910614,103.4306775407779
43.039106145251395,103.41362229102168
43.10614525139665,103.53899589516892
43.1731843575419,103.46801773274224
43.24022346368715,103.52199874292897
43.3072625698324,103.47079145728644
43.374301675977655,103.45741029641185
43.44134078212291,103.75529925187033
43.50837988826816,103.53958201393287
43.57541899441341,103.54982709839672
43.64245810055866,103.80904836193447
43.709497206703915,103.61000944287063
43.77653631284916,103.50236518448439
43.84357541899441,103.53630050505052
43.910614525139664,103.61668258516396
43.977653631284916,103.61467038068709
44.04469273743017,103.58808698392687
44.11173184357542,103.71933144118574
44.17877094972067,103.40521029504082
44.245810055865924,103.59635083226632
44.312849162011176,103.83375796178343
44.37988826815643,103.60152284263958
44.44692737430168,103.71935381691479
44.51396648044693,103.73301587301587
44.58100558659218,103.68999366687777
44.64804469273743,103.8920099875156
44.71508379888268,103.6595812182741
44.78212290502793,103.82247765006386
44.849162011173185,103.57721046077211
44.91620111731844,103.68830354343054
44.98324022346369,103.78849193803352
45.05027932960894,103.69790343074969
45.11731843575419,103.55141955835963
45.184357541899445,103.65202384687794
45.2513966480447,103.55216443475554
45.31843575418995,103.63883617963315
45.385474860335194,103.58981657179001
45.452513966480446,103.59078168794768
45.5195530726257,103.63171036204744
45.58659217877095,103.55179968701094
45.6536312849162,103.63024420788979
45.720670391061454,103.56560227631996
45.787709497206706,103.67035048942216
45.85474860335196,103.39215070643642
45.92178770949721,103.46598002496879
45.98882681564246,103.50342679127726
46.05586592178771,103.46901276860793
46.122905027932966,103.58104738154613
46.1899441340782,103.37028962939895
46.25698324022346,103.285536159601
46.324022346368714,103.30571249215318
46.391061452513966,103.16114928169893
46.45810055865922,103.3483502538071
46.52513966480447,103.15469093191088
46.59217877094972,102.94009360374415
46.659217877094974,102.77973977695167
46.726256983240226,102.6764982742391
46.79329608938548,102.69866001869741
46.86033519553073,102.60856079404466
46.92737430167598,102.4454432734036
46.99441340782123,102.2772797527048
47.06145251396648,102.400878293601
47.12849162011173,102.2865551425031
47.19553072625698,102.60858895705522
47.262569832402235,102.57535515750465
47.32960893854749,102.68951612903226
47.39664804469274,102.77065923862581
47.46368715083799,102.52196782178218
47.53072625698324,102.72130121989366
47.597765363128495,102.59599749843652
47.66480446927375,102.63742138364779
47.731843575419,102.71195481644179
47.798882681564244,102.91736825693795
47.865921787709496,102.79017718371152
47.93296089385475,102.53735456215554
48.0,102.2891975308642
48.06703910614525,102.3805693069307
48.134078212290504,102.53735456215554
48.201117318435756,102.37546468401487
48.26815642458101,102.44774273345703
48.33519553072626,102.48702719599875
48.40223463687151,102.39771322620518
48.469273743016764,102.41501854140914
48.536312849162016,102.68109269490485
48.60335195530726,102.645394530022
48.67039106145251,102.53279702970298
48.737430167597765,102.48275862068965
48.80446927374302,102.49246231155779
48.87150837988827,102.51577631990003
48.93854748603352,102.77349768875193
49.00558659217877,102.76017532874138
49.072625698324025,102.79045512010114
49.13966480446928,103.12543664655446
49.20670391061453,103.2050879396985
49.27374301675978,103.17988929889299
49.34078212290503,103.25931725649859
49.40782122905028,103.1904912836767
49.47486033519553,102.91519105312209
49.54189944134078,102.92329456145865
49.608938547486034,102.79857673267327
49.675977653631286,102.77770878609127
49.74301675977654,102.89959336878324
49.8100558659218,102.67629698664182
49.87709497206704,102.8784375
49.944134078212294,102.80982170785111
50.011173184357546,102.8809375
50.0782122905028,102.91217257318952
50.14525139664805,102.78671220117975
50.212290502793294,103.09573810994442
50.279329608938546,102.74294670846396
50.3463687150838,102.78079201746179
50.41340782122905,102.78484184152835
50.4804469273743,102.67463061930209
50.547486033519554,102.74684741488021
50.614525139664806,103.05076142131979
50.68156424581006,103.06321112515803
50.74860335195531,102.84383819379116
50.81564245810056,102.9438202247191
50.882681564245814,103.00627155848228
50.949720670391066,103.12870662460568
51.01675977653631,103.11180317658051
51.08379888268156,103.00757336699274
51.150837988826815,102.91142768659027
51.21787709497207,103.06257744733581
51.28491620111732,103.18473138548539
51.35195530726257,102.93504484998454
51.41899441340782,103.06018085438103
51.48603351955308,103.04733727810651
51.55307262569833,103.02382425742574
51.62011173184358,102.72943722943724
51.68715083798883,102.74102722772277
51.75418994413408,102.60309597523221
51.82122905027933,102.86591830371063
51.88826815642458,102.82957005876895
51.95530726256983,103.05082631743062
52.022346368715084,102.75216049382716
52.089385474860336,102.96367052928281
52.15642458100559,102.68932636111965
52.22346368715084,102.86438059932036
52.29050279329609,102.92367359602854
52.357541899441344,102.7498463429625
52.424581005586596,102.72044678870617
52.49162011173185,102.69935444205349
52.5586592178771,102.44362519201229
52.625698324022345,102.29910851521672
52.6927374301676,102.45266089108911
52.75977653631285,102.31791730474731
52.8268156424581,102.38564325668116
52.89385474860335,102.38735420503376
52.960893854748605,102.38482800982801
53.02793296089386,102.41982864137086
53.09497206703911,102.39809699201963
53.162011173184354,102.40903503380454
53.22905027932961,102.35797905113986
53.296089385474865,102.31598513011153
53.36312849162012,102.21175030599754
53.43016759776536,102.38497217068647
53.497206703910614,102.25876512565932
53.564245810055866,102.33312577833125
53.63128491620112,102.516462841016
53.69832402234637,102.71997491376607
53.76536312849162,102.38593215063804
53.832402234636874,102.41202117720337
53.899441340782126,102.22218779051751
53.96648044692738,102.3718193384224
54.03351955307263,102.29713566257476
54.10055865921788,102.19569959488938
54.16759776536313,102.35867871611093
54.23463687150838,102.38068709377902
54.30167597765363,102.4754856614246
54.36871508379888,102.41778054087659
54.435754189944134,102.4480376766091
54.502793296089386,102.31780055917987
54.56983240223464,102.56785934608267
54.63687150837989,102.4881693648817
54.70391061452514,102.44986029183484
54.770949720670394,102.60932123866125
54.837988826815646,102.57156368221942
54.9050279329609,102.46677115987461
54.97206703910615,102.43373493975903
55.039106145251395,102.38383195416931
55.10614525139665,102.47104247104247
55.1731843575419,102.38223938223938
55.24022346368715,102.46097483274929
55.3072625698324,102.55238095238096
55.374301675977655,102.57385826771653
55.44134078212291,102.62799495586381
55.50837988826816,102.74606175173284
55.57541899441341,102.68809073724007
55.64245810055866,102.96650717703349
55.709497206703915,102.92918660287081
55.77653631284917,102.96694995278564
55.84357541899441,102.90421455938699
55.910614525139664,102.60114869176772
55.977653631284916,102.63552589768034
56.04469273743017,102.77961257542077
56.11173184357542,102.73031931710402
56.17877094972067,102.7201248049922
56.245810055865924,102.93882725832013
56.312849162011176,103.07605543022882
56.37988826815643,103.10767287653931
56.44692737430168,102.84775840597759
56.51396648044693,102.89538171536286
56.581005586592184,103.0869025450031
56.64804469273743,103.07613424487259
56.71508379888268,102.82885387704665
56.78212290502793,103.0040650406504
56.849162011173185,102.77989981214778
56.91620111731844,102.88733705772812
56.98324022346369,102.75383171723492
57.05027932960894,102.88036329470718
57.11731843575419,102.91715610510047
57.184357541899445,102.88705148205928
57.2513966480447,102.70281250000001
57.31843575418995,102.73113939770258
57.3854748603352,102.42115027829314
57.452513966480446,102.31598864711448
57.5195530726257,102.43468817871548
57.58659217877095,102.21161048689139
57.6536312849162,102.23317683881064
57.720670391061454,102.32654340332184
57.787709497206706,102.43914524620625
57.85474860335196,102.31454375583931
57.92178770949721,102.40854224698236
57.98882681564246,102.31622874806801
58.05586592178771,102.1848635235732
58.122905027932966,102.08358942839581
58.18994413407822,102.09467455621302
58.25698324022346,102.23012160898035
58.324022346368714,102.23824257425743
58.391061452513966,102.29256965944273
58.45810055865922,102.4516228748068
58.52513966480447,102.51894056051741
58.59217877094972,102.51167860479602
58.659217877094974,102.51282051282051
58.726256983240226,102.59932035835651
58.79329608938548,102.33353865106253
58.86033519553073,102.47212706322019
58.92737430167598,102.42218080149114
58.994413407821234,102.51021671826626
59.06145251396648,102.23313828149061
59.12849162011173,102.1606811145511
59.19553072625698,102.32340958947039
59.262569832402235,102.37306021104904
59.32960893854749,102.22789115646259
59.39664804469274,102.11621454993835
59.46368715083799,102.29278158058494
59.53072625698324,102.23419495484274
59.597765363128495,102.29719626168225
59.66480446927375,102.24690976514214
59.731843575419,102.14775561097257
59.79888268156425,102.12228175228489
59.865921787709496,102.00562324273665
59.93296089385475,101.95916458852868
60.0,102.10861423220975
60.06703910614525,102.13510971786835
60.134078212290504,102.34577665295792
60.201117318435756,102.35045698077528
60.26815642458101,102.10643642072213
60.33519553072626,102.15809523809524
60.40223463687151,102.16451307910494
60.469273743016764,102.22741629816802
60.536312849162016,102.31950601646612
60.60335195530727,102.361715547146
60.67039106145251,102.50015678896206
60.737430167597765,102.49112426035504
60.80446927374302,102.5089425792281
60.87150837988827,102.38916562889166
60.93854748603352,102.57821405953135
61.00558659217877,102.3917428301292
61.072625698324025,102.34447949526815
61.13966480446928,102.43035993740219
61.20670391061453,102.58643533123029
61.27374301675978,102.52889447236181
61.34078212290503,102.63217665615143
61.407821229050285,102.76124129195694
61.47486033519553,102.75788467664862
61.54189944134078,102.68125
61.608938547486034,102.75215036635872
61.675977653631286,102.78810879190387
61.74301675977654,102.5401505646173
61.8100558659218,102.43485186365085
61.87709497206704,102.37655304237018
61.944134078212294,102.38136407300672
62.011173184357546,102.33798351299937
62.0782122905028,102.42734499205088
62.14525139664805,102.48391089108911
62.2122905027933,102.41390205371248
62.279329608938546,102.33723505219866
62.3463687150838,102.40799492385786
62.41340782122905,102.49555837563452
62.4804469273743,102.2193120858315
62.547486033519554,102.15255843335439
62.614525139664806,102.32060586935943
62.68156424581006,102.20340557275543
62.74860335195531,102.18368617683686
62.81564245810056,102.292099464904
62.882681564245814,102.26025236593061
62.949720670391066,102.20444583594238
63.01675977653632,102.22509339975093
63.08379888268156,102.22734350669575
63.150837988826815,102.26296181310153
63.21787709497207,102.26580724370778
63.28491620111732,102.24953212726139
63.35195530726257,102.34115805946792
63.41899441340782,102.25657691117301
63.48603351955308,102.21941323345818
63.55307262569833,102.24049429657794
63.62011173184358,102.45125
63.68715083798883,102.3227927363807
63.75418994413408,102.5208203853325
63.821229050279335,102.25623652602403
63.88826815642458,102.25721301411909
63.95530726256983,102.15982450642431
64.02234636871509,101.9272784019975
64.08938547486034,102.23635216156516
64.1564245810056,101.91957605985037
64.22346368715084,102.04447949526815
64.29050279329608,102.00814281240213
64.35754189944134,101.73692307692308
64.42458100558659,101.98637770897834
64.49162011173185,101.9633281972265
64.55865921787709,101.9330622458555
64.62569832402235,101.75062034739454
64.6927374301676,101.68137715179968
64.75977653631286,101.71602244389027
64.8268156424581,101.83068288119738
64.89385474860336,102.00564086493262
64.9608938547486,102.05018703241895
65.02793296089386,102.1018001241465
65.09497206703911,102.0393135725429
65.16201117318435,102.35617303441742
65.22905027932961,102.02465667915106
65.29608938547486,101.97212431912848
65.36312849162012,102.13130680037605
65.43016759776536,102.01955219173762
65.49720670391062,101.95897759545599
65.56424581005587,102.04607131587252
65.63128491620112,101.98390092879258
65.69832402234637,102.03043614684655
65.76536312849163,102.18392242727558
65.83240223463687,102.23447841159785
65.89944134078212,102.22881355932203
65.96648044692738,102.29594721960414
66.03351955307262,102.25039619651348
66.10055865921788,102.00765550239234
66.16759776536313,101.96357409713573
66.23463687150839,102.16980539861896
66.30167597765363,101.9556313993174
66.36871508379889,102.2378532867577
66.43575418994413,102.13065015479877
66.5027932960894,102.18382817435248
66.56983240223464,102.14856429463171
66.6368715083799,102.35561160151325
66.70391061452514,102.42432770481551
66.77094972067039,102.4002521273243
66.83798882681565,102.41243654822334
66.90502793296089,102.4823677581864
66.97206703910616,102.3734256926952
67.0391061452514,102.04175824175825
67.10614525139665,102.182301438399
67.1731843575419,102.178025477707
67.24022346368716,102.20822942643392
67.3072625698324,102.48430634023855
67.37430167597766,102.34927041291525
67.44134078212291,102.30898876404494
67.50837988826815,102.26297686053783
67.57541899441341,102.10801609408851
67.64245810055866,102.13577924114142
67.70949720670392,102.52537031200755
67.77653631284916,102.51668726823237
67.84357541899442,102.60205671548769
67.91061452513966,102.6854562441607
67.97765363128492,102.64621164683781
68.04469273743017,102.57279752704792
68.11173184357543,102.62978056426333
68.17877094972067,102.42633517495395
68.24581005586593,102.65948141205872
68.31284916201118,102.53070719602978
68.3798882681564,102.48448168839231
68.44692737430168,102.1994382022472
68.51396648044692,102.4559375
68.58100558659218,102.37348649487737
68.64804469273743,102.24648107600876
68.71508379888269,102.27936110241153
68.78212290502793,102.36160854539742
68.84916201117319,102.33271144278606
68.91620111731844,102.25023488881929
68.9832402234637,102.32553058676655
69.05027932960894,102.23787019533712
69.11731843575419,102.20969773299748
69.18435754189944,102.25381026438569
69.25139664804469,102.26794710327455
69.31843575418995,102.26605793450881
69.3854748603352,102.363890615289
69.45251396648045,102.24086901763224
69.5195530726257,102.34156250000001
69.58659217877096,102.3797704002482
69.6536312849162,102.16563082660036
69.72067039106146,102.31248045042227
69.7877094972067,102.26229508196721
69.85474860335195,102.28331257783313
69.92178770949721,102.05943071629653
69.98882681564245,101.95648119365868
70.05586592178771,101.95264623955431
70.12290502793296,102.11397984886649
70.18994413407822,102.10738885410143
70.25698324022346,102.14074772227458
70.32402234636871,102.10788643533124
70.39106145251397,102.15875
70.45810055865923,102.30491283676704
70.52513966480447,102.28004956629492
70.59217877094973,102.01641414141415
70.65921787709497,101.98137626262627
70.72625698324022,101.82263673727475
70.79329608938548,101.9890625
70.86033519553072,102.09782608695653
70.92737430167598,101.96986040609136
70.99441340782123,102.10449187639375
71.06145251396649,101.90755498884283
71.12849162011173,101.93426930440333
71.19553072625699,101.92135186355021
71.26256983240224,101.7353032659409
71.3296089385475,101.79258328095537
71.39664804469274,101.93454769990738
71.46368715083798,101.81809672386896
71.53072625698324,101.8040561622465
71.59776536312849,102.10507936507936
71.66480446927375,101.98929133858267
71.73184357541899,101.89756560227633
71.79888268156425,101.90986448156318
71.8659217877095,101.8734616598296
71.93296089385476,101.91640178003814
72.0,101.9598862918509
72.06703910614526,102.0480923372876
72.1340782122905,101.96682615629983
72.20111731843576,101.95078369905957
72.26815642458101,102.10025542784165
72.33519553072625,101.85416666666667
72.40223463687151,101.9549063194665
72.46927374301676,102.05701754385964
72.53631284916202,102.07030759573134
72.60335195530726,102.1231343283582
72.67039106145252,102.17377666248431
72.73743016759776,102.14486418982204
72.80446927374302,102.17565872020074
72.87150837988827,102.21630094043888
72.93854748603353,102.18099121706398
73.00558659217877,102.2100283822138
