Time,Signal_1
0.0,170.14812575574365
0.03333333333333333,172.411620795107
0.06666666666666667,172.1268472906404
0.1,172.30745906610068
0.13166666666666668,171.91368680641185
0.165,172.30910201588273
0.19833333333333333,172.3951911220715
0.2316666666666667,172.77501516070345
0.265,172.23223039215685
0.29833333333333334,172.09803921568627
0.33166666666666667,172.21085080147967
0.36500000000000005,172.1257706535142
0.3983333333333334,172.52351863164324
0.4316666666666667,172.8611778846154
0.465,172.92397302268546
0.49833333333333335,172.5138190954774
0.5316666666666667,173.215479876161
0.5650000000000002,173.02344231955584
0.5983333333333334,173.29148539465504
0.6316666666666667,173.67241379310346
0.665,173.39419588875452
0.6983333333333334,173.23114355231144
0.7316666666666667,173.53860294117646
0.765,173.90571776155718
0.7983333333333333,173.593210244193
0.8316666666666667,173.94921402660216
0.8650000000000001,173.60569351907935
0.8983333333333335,172.88154613466332
0.9316666666666668,172.65731707317073
0.9650000000000001,172.45454545454547
0.9983333333333334,172.21744471744472
1.0316666666666667,172.03829252981797
1.0650000000000002,172.32818294190358
1.0983333333333334,172.6026812918952
1.1316666666666668,172.72638634978674
1.165,173.04448507007922
1.1983333333333335,172.46371463714638
1.2316666666666667,172.48831488314883
1.2650000000000001,172.56842105263158
1.2983333333333333,172.4919454770756
1.3316666666666668,172.55862068965519
1.365,172.11626468769327
1.3983333333333334,172.32250153280197
1.4316666666666669,172.6319277108434
1.465,173.1228606356968
1.4983333333333335,173.05791743684534
1.5316666666666667,172.6891891891892
1.5650000000000002,173.01083032490976
1.5983333333333334,172.57099514563106
1.6316666666666668,173.0803897685749
1.665,172.90133982947623
1.6983333333333335,173.21784615384615
1.7316666666666667,172.7996300863132
1.7650000000000001,172.97819503331314
1.7983333333333333,173.13325257419746
1.83,173.09438618136954
1.8633333333333335,172.6922133660331
1.8966666666666667,172.78177309361436
1.9300000000000002,172.23465045592707
1.9633333333333334,172.70158343483556
1.9966666666666668,173.08246153846156
2.0300000000000002,172.50182704019488
2.0633333333333335,172.93661538461538
2.0966666666666667,172.3976572133169
2.1300000000000003,172.52407068860452
2.1633333333333336,172.34966727162737
2.1966666666666668,172.7919504643963
2.23,172.6227909811091
2.2633333333333336,172.78281911675742
2.296666666666667,172.88734939759038
2.33,172.9030303030303
2.3633333333333333,172.0788330229671
2.396666666666667,172.48792569659443
2.43,172.37832817337463
2.4633333333333334,172.32383900928792
2.496666666666667,172.26646153846156
2.5300000000000002,172.39975399754
2.5633333333333335,172.35424354243543
2.5966666666666667,172.64360073484386
2.6300000000000003,172.1869618696187
2.6633333333333336,172.66243961352657
2.6966666666666668,172.23370233702337
2.73,172.2782874617737
2.7633333333333336,172.49542961608776
2.796666666666667,172.36633663366337
2.83,172.63720642768848
2.8633333333333337,172.5417185554172
2.896666666666667,172.66064757160646
2.93,172.51684017146357
2.9633333333333334,172.86424242424243
2.996666666666667,172.45277269957344
3.0300000000000002,172.22679778733865
3.0633333333333335,172.30214067278285
3.0966666666666667,172.4116192830655
3.1300000000000003,172.54311926605504
3.1633333333333336,172.2675709001233
3.1966666666666668,172.16727272727272
3.2300000000000004,172.4738783036263
3.2633333333333336,172.93922984356198
3.296666666666667,172.90657652120467
3.33,172.99260172626387
3.3633333333333337,172.79034229828852
3.396666666666667,172.57204169221336
3.43,172.98596705308114
3.461666666666667,172.24846248462484
3.495,172.3384900990099
3.5283333333333338,172.82671480144404
3.561666666666667,172.8742478941035
3.595,172.4129775621589
3.6283333333333334,172.58545454545455
3.661666666666667,172.51603145795525
3.6950000000000003,172.01424148606813
3.7283333333333335,171.98513931888547
3.7616666666666667,172.288
3.7950000000000004,171.97117117117116
3.8283333333333336,172.25636363636363
3.861666666666667,172.2419842710224
3.8950000000000005,172.4
3.9283333333333337,172.62043343653252
3.961666666666667,172.62552934059286
3.995,172.5837837837838
4.028333333333333,171.75436408977555
4.0616666666666665,172.4150030248034
4.095000000000001,171.69773145309625
4.128333333333334,172.13778054862843
4.161666666666667,172.58333333333334
4.195,172.45274861025325
4.2283333333333335,172.53204353083433
4.261666666666667,172.6794487717196
4.295,172.9026013309135
4.328333333333334,172.6986301369863
4.361666666666667,172.77011494252875
4.395000000000001,172.99274047186935
4.428333333333334,173.09679370840897
4.461666666666667,173.05263157894737
4.495,172.36189334931098
4.528333333333333,172.67816091954023
4.5616666666666665,172.6535433070866
4.595000000000001,172.66626360338572
4.628333333333334,172.32934131736528
4.661666666666667,173.06771463119708
4.695,173.05447010065126
4.7283333333333335,172.37725631768953
4.761666666666667,172.91153616258217
4.795,173.34782608695653
4.828333333333334,172.97351383166568
4.861666666666667,172.94762191450934
4.895000000000001,173.0818128310771
4.928333333333334,172.82810615199034
4.961666666666667,173.0250297973778
4.995,172.53473053892216
5.028333333333333,172.55328115593016
5.061666666666668,172.72634730538923
5.095000000000001,172.97115950559152
5.128333333333334,172.9258387286639
5.16,172.9635079458505
5.193333333333333,172.87934078869924
5.226666666666667,172.93702177751618
5.260000000000001,172.7076923076923
5.293333333333334,173.0963926670609
5.326666666666667,173.29098360655738
5.36,173.27218934911244
5.3933333333333335,173.32111176818452
5.426666666666667,173.5214579659024
5.46,173.05250737463126
5.493333333333334,172.9359129383313
5.526666666666667,173.0237670825906
5.5600000000000005,172.76941315945464
5.593333333333334,172.45996387718242
5.626666666666667,172.32510535821794
5.66,172.13059250302297
5.693333333333333,172.19475878499108
5.7266666666666675,172.2301775147929
5.760000000000001,172.06056935190793
5.793333333333334,171.68734939759037
5.826666666666667,172.33701657458562
5.86,172.2801461632156
5.8933333333333335,172.569746909947
5.926666666666667,172.27041420118343
5.96,171.53539019963705
5.993333333333334,171.9369696969697
6.026666666666667,171.68121212121213
6.0600000000000005,172.02874251497005
6.093333333333334,172.1923774954628
6.126666666666667,171.7334536702768
6.16,171.53085680047934
6.193333333333333,171.63690832834033
6.2266666666666675,171.39914686166972
6.260000000000001,171.99336550060312
6.293333333333334,171.605122096486
6.326666666666667,172.1339656194428
6.36,172.20953502060036
6.3933333333333335,171.99342498505678
6.426666666666667,171.978222483814
6.460000000000001,171.83075089392133
6.493333333333334,171.19177253478526
6.526666666666667,171.49725776965266
6.5600000000000005,171.75757575757575
6.593333333333334,171.48705599036725
6.626666666666667,171.77696526508228
6.66,171.24439053972105
6.693333333333333,171.30558858501783
6.7266666666666675,171.38168846611177
6.760000000000001,171.51746595618707
6.791666666666667,171.61385542168676
6.825,171.56807228915665
6.858333333333333,171.44585601935876
6.8916666666666675,171.86593540524072
6.925000000000001,171.588622754491
6.958333333333334,171.6769696969697
6.991666666666667,171.48645394340758
7.025,171.83212121212122
7.058333333333334,171.81291895185862
7.091666666666667,171.80666666666667
7.125000000000001,171.17222559126745
7.158333333333334,171.4005988023952
7.191666666666667,171.69757575757575
7.2250000000000005,171.60511882998173
7.258333333333334,171.96350364963504
7.291666666666667,171.85766423357666
7.325,172.03567181926277
7.358333333333333,172.3431137724551
7.3916666666666675,172.2772218952325
7.425000000000001,172.2777108433735
7.458333333333334,172.2370505789153
7.491666666666667,172.4626955475331
7.525,172.6396664681358
7.558333333333334,172.6635127143702
7.591666666666667,172.89699823425545
7.625000000000001,172.61167361524718
7.658333333333334,172.82637628554144
7.691666666666667,173.22759433962264
7.7250000000000005,172.7046539379475
7.758333333333334,173.0600353148911
7.791666666666667,172.6317365269461
7.825,172.64071856287424
7.858333333333334,172.88522660388463
7.8916666666666675,173.05798816568048
7.925000000000001,172.97953040337146
7.958333333333334,172.6265784726398
7.991666666666667,172.92155688622753
8.025,173.65201238390094
8.058333333333334,173.1467492260062
8.091666666666667,172.8499095840868
8.125,173.46015578190534
8.158333333333333,173.78027997565428
8.191666666666666,174.0502092050209
8.225,173.64702416028285
8.258333333333335,173.67476303317537
8.291666666666668,173.91157270029672
8.325000000000001,173.94421364985163
8.358333333333334,173.50299401197606
8.391666666666667,173.8330351818724
8.425,173.58308516974392
8.458333333333334,173.89704142011834
8.49,173.7831184056272
8.523333333333333,173.907100591716
8.556666666666667,173.60889929742387
8.59,173.86050618010594
8.623333333333333,173.70012165450123
8.656666666666668,173.88682634730537
8.690000000000001,173.9320843091335
8.723333333333334,173.61191335740074
8.756666666666668,173.77991581479256
8.790000000000003,173.56390066626287
8.823333333333334,173.63800360793746
8.856666666666667,174.04423748544818
8.89,173.72366863905324
8.923333333333334,173.69644970414203
8.956666666666667,173.6189349112426
8.99,172.9549278846154
9.023333333333333,173.30311948204826
9.056666666666667,173.44082840236686
9.09,173.82048263684518
9.123333333333333,173.73905325443786
9.156666666666668,173.7599531615925
9.190000000000001,173.68969555035127
9.223333333333334,173.74208675263773
9.256666666666668,173.96658851113716
9.290000000000003,173.6113116726835
9.323333333333334,172.84917228694053
9.356666666666667,172.94170673076923
9.39,173.36497244335578
9.423333333333334,172.75
9.456666666666667,172.7590435315757
9.49,172.8815867377146
9.523333333333333,172.92303066746845
9.556666666666667,172.84873454973513
9.59,173.05132850241546
9.623333333333333,172.84828416616497
9.656666666666668,172.94156626506026
9.690000000000001,172.86388718577558
9.723333333333334,172.6962477665277
9.756666666666668,173.0144491270319
9.790000000000003,172.34443783462225
9.823333333333334,172.68864037669215
9.856666666666667,172.05502958579882
9.89,172.01556886227544
9.923333333333334,171.95076201641265
9.956666666666667,172.07883817427384
9.99,171.7597363690833
10.023333333333333,171.8938679245283
10.056666666666667,171.9176187612748
10.09,171.6934131736527
10.121666666666668,172.0569203115638
10.155000000000001,171.8508982035928
10.188333333333334,171.87135199523527
10.221666666666668,171.92307692307693
10.255,171.9609698403312
10.288333333333334,171.68192627824018
10.321666666666667,171.82274652147612
10.355,171.5202380952381
10.388333333333334,171.63176680547295
10.421666666666667,171.54193932183225
10.455,171.98816568047337
10.488333333333333,171.7473372781065
10.521666666666667,171.92925089179548
10.555000000000001,171.59192037470726
10.588333333333335,172.1914387633769
10.621666666666668,171.9682634730539
10.655000000000001,171.93529059316955
10.688333333333334,172.17359855334539
10.721666666666668,172.11636363636364
10.755,172.24805272618335
10.788333333333334,172.37212121212121
10.821666666666667,172.40678975580704
10.855,172.1017354877319
10.888333333333334,171.80983803239351
10.921666666666667,171.91746987951808
10.955,171.86476652516677
10.988333333333333,171.9578313253012
11.021666666666667,172.6085932901707
11.055000000000001,172.6044732195409
11.088333333333335,172.4396449704142
11.121666666666668,172.71573301549464
11.155000000000001,172.5122950819672
11.188333333333334,173.08432304038004
11.221666666666668,172.46904761904764
11.255,172.9452852153667
11.288333333333334,172.76724655068983
11.321666666666667,172.4229128580134
11.355,172.6983546617916
11.388333333333334,172.18304885226604
11.421666666666667,172.65301204819278
11.455,172.37380952380954
11.488333333333333,172.40454817474566
11.521666666666668,172.07874481941977
11.555000000000001,172.60714285714286
11.588333333333335,172.5729794933655
11.621666666666668,171.89613526570048
11.655000000000001,172.52315914489313
11.688333333333334,172.42776025236594
11.721666666666668,172.67957117331747
11.755,172.83799880881477
11.788333333333334,173.08101714961563
11.82,172.7229129662522
11.853333333333333,172.69249394673125
11.886666666666667,172.353919239905
11.92,172.36768292682927
11.953333333333335,172.7551515151515
11.986666666666668,172.95372596153848
12.020000000000001,173.06824925816022
12.053333333333335,173.27417452830187
12.086666666666668,173.26697892271662
12.120000000000001,173.18047337278108
12.153333333333334,173.15244261330193
12.186666666666667,173.046875
12.22,172.9060606060606
12.253333333333334,172.86276849642005
12.286666666666667,172.71660649819495
12.32,172.75451263537906
12.353333333333333,172.61715976331362
12.386666666666667,172.7805882352941
12.42,173.0950661853189
12.453333333333335,173.17027677496992
12.486666666666668,173.18522930315666
12.520000000000001,173.43656938653962
12.553333333333335,173.24190700412007
12.586666666666668,173.59940119760478
12.620000000000001,173.41291469194314
12.653333333333334,173.40769230769232
12.686666666666667,173.2966051220965
12.72,173.5834326579261
12.753333333333334,172.9164691943128
12.786666666666667,173.51959619952495
12.82,173.4373508353222
12.853333333333333,173.81609870740306
12.886666666666667,173.1500302480339
12.920000000000002,173.67239336492892
12.953333333333335,172.97882637628555
12.986666666666668,173.32130384167635
13.020000000000001,173.13719692489653
13.053333333333335,173.57218934911242
13.086666666666668,173.37100591715978
13.120000000000001,173.28877314814815
13.153333333333334,172.9958799293702
13.186666666666667,173.23063170441
13.22,173.40214158239144
13.253333333333334,173.45145920190592
13.286666666666667,173.0281100478469
13.32,172.81812796208533
13.353333333333333,173.15106635071092
13.386666666666667,172.80442583732057
13.420000000000002,173.49847653869594
13.451666666666668,173.4659090909091
13.485000000000001,174.3331371394938
13.518333333333334,174.5671200473093
13.551666666666668,173.7465794170137
13.585,173.61465157832043
13.618333333333334,173.44260355029587
13.651666666666667,174.17555422408628
13.685,174.20179640718564
13.718333333333334,174.30613460393093
13.751666666666667,174.09349112426037
13.785,173.96508875739644
13.818333333333333,174.13949381989406
13.851666666666668,174.26250735726896
13.885000000000002,174.42857142857142
13.918333333333335,174.52985948477752
13.951666666666668,174.62189349112427
13.985000000000001,175.09827278141753
14.018333333333334,174.9455621301775
14.051666666666668,175.20070629782225
14.085,174.81132075471697
14.118333333333334,175.39905826957033
14.151666666666667,174.9052443384982
14.185,175.05329341317366
14.218333333333334,174.9905325443787
14.251666666666667,175.31625967838
14.285,174.7603550295858
14.318333333333335,175.00710059171598
14.351666666666668,174.93761035903472
14.385000000000002,174.88974970202622
14.418333333333335,174.84266984505362
14.451666666666668,174.4982142857143
14.485000000000001,174.62544589774078
14.518333333333334,174.82416267942583
14.551666666666668,175.17367458866545
14.585,174.61160981448234
14.618333333333334,174.78184034125533
14.651666666666667,174.4721563981043
14.685,174.5781818181818
14.718333333333334,174.25724423418097
14.751666666666667,174.40524070688605
14.785,173.85269461077843
14.818333333333335,174.36446331109764
14.851666666666668,173.90012033694344
14.885000000000002,174.13751507840772
14.918333333333335,174.1311672683514
14.951666666666668,174.15356489945157
14.985000000000001,173.98809523809524
15.018333333333334,173.9212085308057
15.051666666666668,173.8914081145585
15.085,173.84484848484848
15.118333333333334,173.57252812314977
15.15,174.0290909090909
15.183333333333334,173.60806742925948
15.216666666666667,173.99390615478367
15.250000000000002,173.68184541641702
15.283333333333335,173.19592570401437
15.316666666666668,173.26650803093398
15.350000000000001,173.3804220398593
15.383333333333335,173.75147928994082
15.416666666666668,173.4943147815679
15.450000000000001,173.25225767609874
15.483333333333334,173.14661879114303
15.516666666666667,173.3418647166362
15.55,173.45581113801452
15.583333333333334,173.5319526627219
15.616666666666667,173.75868157739845
15.65,173.692627824019
15.683333333333334,173.31594372801874
15.716666666666669,173.36455245998812
15.750000000000002,173.19189511323003
15.783333333333335,173.260843373494
15.816666666666668,173.34397590361448
15.850000000000001,173.63786982248521
15.883333333333335,173.80838323353294
15.916666666666668,173.32544378698225
15.950000000000001,173.53696037847428
15.983333333333334,173.22130177514794
16.01666666666667,173.20118343195267
16.05,173.44378698224853
16.083333333333336,173.7945205479452
16.116666666666667,173.45029585798818
16.150000000000002,173.47218934911243
16.183333333333334,173.56331360946746
16.21666666666667,173.47692307692307
16.25,173.3852071005917
16.283333333333335,173.27692307692308
16.316666666666666,173.42958579881656
16.35,173.49289940828402
16.383333333333333,173.40376692171864
16.416666666666668,173.5410225921522
16.45,173.8214702450408
16.483333333333334,173.32807939287798
16.51666666666667,173.93786635404453
16.55,173.79270411117542
16.583333333333336,173.68323353293414
16.616666666666667,173.34204275534444
16.650000000000002,173.52754491017964
16.683333333333334,173.09452137266706
16.71666666666667,173.1568862275449
16.75,173.4246575342466
16.781666666666666,173.62700773349198
16.815,173.13877307921382
16.848333333333333,173.40311937612475
16.881666666666668,173.8846153846154
16.915000000000003,173.81656804733728
16.948333333333334,173.72603550295858
16.98166666666667,173.80620608899298
17.015,173.97178130511463
17.048333333333336,174.36107784431138
17.081666666666667,174.1768082663605
17.115000000000002,173.6741573033708
17.148333333333333,173.4502994011976
17.18166666666667,173.47692307692307
17.215,173.71748087110063
17.248333333333335,173.79223072395527
17.281666666666666,173.46370023419203
17.315,173.4961742201295
17.348333333333333,173.19337670017742
17.381666666666668,173.430151338766
17.415000000000003,173.47664104080428
17.448333333333334,173.9326579261025
17.48166666666667,173.487514863258
17.515,173.30479041916166
17.548333333333336,173.11656804733727
17.581666666666667,173.3365269461078
17.615000000000002,173.23832335329342
17.648333333333333,173.13146936347414
17.68166666666667,173.6537795729948
17.715,173.3502358490566
17.748333333333335,173.70488940628638
17.781666666666666,173.43508771929825
17.815,173.4585537918871
17.848333333333333,172.92011834319527
17.881666666666668,173.13952095808384
17.915000000000003,172.66706091070373
17.948333333333334,173.21180555555554
17.98166666666667,173.39464493597205
18.015,173.5221187427241
18.048333333333336,173.54156908665107
18.081666666666667,173.61241217798596
18.115000000000002,173.5878178592549
18.148333333333333,173.53896490184414
18.18166666666667,173.56157049375372
18.215,173.46400951814397
18.248333333333335,173.51576442593696
18.281666666666666,173.63905325443787
18.315,173.4065868263473
18.348333333333336,173.311377245509
18.381666666666668,173.48810939357907
18.415000000000003,173.3251497005988
18.448333333333334,173.34131736526945
18.48,173.44675788221298
18.513333333333335,173.74319526627218
18.546666666666667,173.384661117717
18.580000000000005,173.43307555026772
18.613333333333333,173.279000594884
18.64666666666667,173.28681253696038
18.68,173.01724137931032
18.713333333333335,173.15730337078654
18.746666666666666,173.15257244234184
18.78,173.38276670574442
18.813333333333336,173.33528722157092
18.846666666666668,173.29953106682296
18.880000000000003,173.20197904540163
18.913333333333334,172.82549941245594
18.94666666666667,173.16557474687315
18.98,172.71806945261918
19.013333333333335,172.90239520958085
19.046666666666667,172.7874251497006
19.080000000000005,173.0166468489893
19.113333333333333,172.89880239520957
19.14666666666667,172.8508875739645
19.18,172.8319526627219
19.213333333333335,172.94733727810652
19.246666666666666,172.77066356228173
19.28,172.8574780058651
19.313333333333336,172.21581450653983
19.346666666666668,172.2958579881657
19.380000000000003,172.32721893491126
19.413333333333334,172.41242603550296
19.44666666666667,172.56467065868264
19.48,172.61474435196195
19.513333333333335,172.40563211503894
19.546666666666667,172.2242603550296
19.580000000000005,172.45144202472042
19.613333333333333,172.19866747425803
19.64666666666667,171.81452104942036
19.68,171.72891566265062
19.713333333333335,172.034819792303
19.746666666666673,172.44530783024504
19.78,172.54090641553853
19.813333333333336,172.79628520071898
19.846666666666668,172.935752528257
19.880000000000003,172.7186932849365
19.913333333333334,172.4712643678161
19.94666666666667,172.71757075471697
19.98,172.91276346604215
20.013333333333335,173.3270254287404
20.046666666666667,173.28690476190476
20.080000000000005,173.11556886227544
20.111666666666668,173.02874251497005
20.145,173.02256532066508
20.178333333333335,172.82476076555022
20.21166666666667,173.17339667458432
20.245,173.26781472684087
20.278333333333336,172.8715976331361
20.311666666666667,172.9526627218935
20.345000000000002,172.77711561382597
20.378333333333334,173.17974238875877
20.41166666666667,173.02830188679243
20.445,173.23254437869824
20.478333333333335,173.28956623681125
20.511666666666667,173.34919690660323
20.545,173.06291192330738
20.578333333333333,173.2516758074345
20.611666666666668,172.73277909738718
20.645,172.9076376554174
20.678333333333335,172.7205447010065
20.71166666666667,172.8241563055062
20.745,172.45233866193013
20.778333333333336,173.3112426035503
20.811666666666667,173.3313713949382
20.845000000000002,173.24426133019423
20.878333333333334,173.08593290170688
20.91166666666667,173.65641632170315
20.945,173.32643406268483
20.978333333333335,173.0065011820331
21.011666666666667,173.16766109785203
21.045,173.24848484848485
21.078333333333333,173.26791089704997
21.111666666666668,173.5642391947898
21.145000000000003,173.5731201894612
21.178333333333335,173.44791053560917
21.21166666666667,173.39788110653325
21.245,173.30017657445555
21.278333333333336,173.2362344582593
21.311666666666667,173.1657785671995
21.345000000000002,173.3090586145648
21.378333333333334,173.72415865384616
21.41166666666667,173.21312462372066
21.445,173.21011438892234
21.478333333333335,172.79810538780342
21.511666666666667,173.3835294117647
21.545,173.48235294117646
21.578333333333333,173.37582681900182
21.611666666666668,173.70335491465568
21.645000000000003,173.55256869772998
21.678333333333335,173.67941176470586
21.71166666666667,173.75222288085357
21.745,173.84610778443113
21.778333333333336,173.69040612124778
21.810000000000002,173.95160314579553
21.843333333333334,173.85101311084622
21.87666666666667,173.83846153846153
21.91,173.72042377869334
21.943333333333335,173.50295857988166
21.976666666666667,173.53629976580797
22.01,173.62899408284025
22.043333333333333,173.58847497089639
22.076666666666668,173.5451285116557
22.110000000000003,173.31216297183943
22.143333333333334,173.53429602888087
22.17666666666667,173.51271437019517
22.21,173.57938885560216
22.243333333333336,173.30190930787592
22.276666666666667,173.3239352129574
22.310000000000002,173.30242424242425
22.343333333333334,173.48779035139967
22.37666666666667,173.63888888888889
22.41,173.10513739545996
22.443333333333335,172.2734518700184
22.476666666666667,172.37362637362637
22.51,173.08441158348737
22.543333333333337,172.2650090964221
22.576666666666668,172.54821103699211
22.610000000000003,172.63837417812312
22.643333333333334,173.0306306306306
22.67666666666667,173.06876111440425
22.71,172.92544378698224
22.743333333333336,172.82764920828257
22.776666666666667,172.85748938750757
22.810000000000002,172.71315949060036
22.843333333333334,172.83183183183183
22.87666666666667,172.72824791418356
22.91,172.69695158398085
22.943333333333335,172.72420147420146
22.976666666666667,172.913927077107
23.01,172.78545887961857
23.043333333333337,172.9284023668639
23.076666666666668,172.9284023668639
23.110000000000003,172.96153846153845
23.143333333333334,172.90828402366864
23.17666666666667,172.7905325443787
23.21,172.766921718658
23.243333333333336,172.60934691431996
23.276666666666667,173.14415505754087
23.310000000000002,173.16132930513595
23.343333333333334,173.11272727272728
23.37666666666667,173.3696824445776
23.41,173.50181159420288
23.441666666666666,173.2354003612282
23.475,173.45235223160432
23.508333333333336,173.42204628501827
23.541666666666668,172.92765174739424
23.575000000000003,172.84060606060606
23.608333333333334,172.97626293365795
23.64166666666667,173.13549969343958
23.675,173.21720297029702
23.708333333333336,172.99694189602445
23.741666666666667,173.08126137052759
23.775000000000002,172.97331716191633
23.808333333333334,173.00909642207398
23.84166666666667,173.11023142509134
23.875,173.10615199034982
23.908333333333335,172.97727272727272
23.941666666666666,172.6952095808383
23.975,173.63137996219282
24.008333333333336,173.00364298724955
24.041666666666668,172.8860523038605
24.075000000000003,172.72121212121212
24.108333333333334,173.01526251526252
24.14166666666667,172.7885435709933
24.175,173.38766788766787
24.208333333333336,173.40326481257557
24.241666666666667,173.30215384615386
24.275000000000002,172.99146861669715
24.308333333333334,173.49121744397334
24.34166666666667,173.41676718938479
24.375,173.57014388489208
24.408333333333335,173.51657625075347
24.44166666666667,173.26983173076923
24.475,173.32769044740024
24.508333333333336,173.74397590361448
24.541666666666668,173.5843373493976
24.575000000000003,174.0674432863274
24.608333333333334,174.00243605359316
24.64166666666667,173.82865671641792
24.675,173.43365500603136
24.708333333333336,173.9680473372781
24.741666666666667,173.80932456664672
24.775000000000002,174.15086463923672
24.808333333333334,174.06976744186045
24.84166666666667,174.11687537268932
24.875,174.1371496720334
24.908333333333335,174.18452380952382
24.94166666666667,174.30471079308288
24.975,174.1425149700599
25.008333333333336,174.3181818181818
25.041666666666668,174.4634292565947
25.075000000000003,174.62390158172232
25.108333333333334,174.32500000000002
25.14,174.35790094339623
25.173333333333336,174.48239436619718
25.206666666666667,174.46968805179517
25.240000000000002,174.34073641145528
25.273333333333333,174.18705882352938
25.30666666666667,174.54508435136708
25.34,174.228998849252
25.373333333333335,174.07147007553746
25.40666666666667,174.46252178965716
25.44,174.70505287896592
25.473333333333336,174.43583678296866
25.506666666666668,174.29101796407184
25.540000000000003,174.53459491425193
25.573333333333334,174.21222810111698
25.60666666666667,173.9917695473251
25.64,173.78402366863907
25.673333333333336,173.52958579881658
25.706666666666667,173.46627218934913
25.740000000000002,173.62759029011247
25.773333333333333,173.3990526939017
25.80666666666667,173.56516656925774
25.840000000000003,173.4083677077195
25.873333333333335,173.54731308411215
25.90666666666667,173.20933014354065
25.94,173.0975903614458
25.973333333333336,173.58441558441558
26.006666666666668,173.3174698795181
26.040000000000003,173.33806986382473
26.073333333333334,173.3967684021544
26.10666666666667,173.39227166276348
26.14,173.80532544378698
26.173333333333336,173.50857480780604
26.206666666666667,173.90453460620526
26.240000000000002,173.68511904761905
26.273333333333333,173.41250000000002
26.30666666666667,173.4133412745682
26.340000000000003,173.41036331149496
26.373333333333335,173.43895175699822
26.40666666666667,173.36152471709352
26.44,173.22934131736525
26.473333333333336,173.07784431137725
26.506666666666668,172.7077380952381
26.540000000000003,172.85145573380868
26.573333333333334,173.10891681627768
26.60666666666667,173.15499700777977
26.64,172.67758923346986
26.673333333333336,172.80414201183433
26.706666666666667,173.01821386603996
26.740000000000002,172.56964285714287
26.77166666666667,173.2563647128478
26.805000000000003,172.9016968987712
26.838333333333335,172.82540638169777
26.871666666666673,172.3794964028777
26.905,173.06080674292596
26.938333333333336,172.742206235012
26.971666666666668,173.22335942203492
27.005000000000003,172.89107142857145
27.038333333333334,172.62529976019184
27.07166666666667,172.3814371257485
27.105,173.02728351126927
27.138333333333335,172.38235294117646
27.171666666666667,173.3608978145304
27.205000000000005,172.66369578134285
27.238333333333337,172.82934131736528
27.27166666666667,172.75844004656577
27.305000000000003,172.795008912656
27.338333333333335,172.69091967403958
27.371666666666673,172.75816993464053
27.405,172.62042502951593
27.438333333333336,172.85416666666669
27.471666666666668,172.64803804994054
27.505000000000003,173.07172743574415
27.538333333333334,172.3821958456973
27.57166666666667,172.90724117295034
27.605,172.67759237187127
27.638333333333335,172.87611673615248
27.671666666666667,172.53950471698113
27.705000000000005,172.6953919808498
27.738333333333337,172.79137115839242
27.77166666666667,172.8748502994012
27.805000000000003,172.9561870929544
27.838333333333335,173.06505026611475
27.871666666666673,172.97202380952382
27.905,172.81785714285715
27.938333333333336,172.850207223209
27.971666666666668,172.63997591812162
28.005000000000003,173.17315757938886
28.038333333333334,173.2676399026764
28.07166666666667,173.15015015015015
28.105,173.09042236763833
28.138333333333335,172.96526946107784
28.171666666666667,173.37380952380954
28.205000000000005,173.5750441436139
28.238333333333337,173.6483451536643
28.27166666666667,173.36957813428404
28.305000000000003,173.12605042016804
28.338333333333335,173.0719381688466
28.371666666666673,173.08648648648648
28.405,173.24880668257757
28.438333333333336,173.36519174041297
28.470000000000002,173.4870588235294
28.503333333333334,173.55894673847996
28.53666666666667,173.43709771796372
28.57,173.65476190476193
28.603333333333335,173.67657550535077
28.63666666666667,173.55351862803076
28.67,173.3489892984542
28.703333333333337,173.3014268727705
28.736666666666668,173.30999999999997
28.770000000000003,173.05
28.803333333333335,172.93609251369446
28.83666666666667,173.02300242130752
28.87,173.0817191283293
28.903333333333336,173.0402193784278
28.936666666666667,173.09261501210653
28.970000000000002,172.7020232985898
29.003333333333334,173.21308523409363
29.03666666666667,172.8506375227687
29.07,173.04608019150209
29.103333333333335,173.05476190476193
29.13666666666667,173.57489638839547
29.17,173.43398460627589
29.203333333333337,173.79595478881618
29.236666666666668,173.54431137724552
29.270000000000003,173.26287744227352
29.303333333333335,173.74334713187466
29.33666666666667,174.12060889929742
29.37,174.00532859680283
29.403333333333336,173.789224393132
29.436666666666667,173.89091981132074
29.470000000000002,173.90754827384436
29.503333333333334,173.8615474112856
29.53666666666667,173.47265160523185
29.57,173.77417452830187
29.603333333333335,173.8508254716981
29.63666666666667,173.90271226415095
29.67,173.98035714285714
29.703333333333337,173.96785714285716
29.736666666666668,173.99579831932772
29.770000000000003,173.9468085106383
29.803333333333335,174.06482593037214
29.83666666666667,173.83303411131058
29.87,173.90952380952382
29.903333333333336,173.54674556213018
29.936666666666667,173.7254556143445
29.970000000000002,173.54739336492892
30.003333333333334,173.3489336492891
30.03666666666667,173.4215861657722
30.07,173.47294117647058
30.10166666666667,173.85246876859014
30.135,173.47013142174433
30.168333333333337,173.74071891573365
30.201666666666668,174.05861244019138
30.235000000000003,174.14861612515043
30.268333333333334,173.94093325457766
30.30166666666667,174.07028942705256
30.335,173.82338902147973
30.368333333333336,173.7451212300414
30.401666666666667,174.18273211117682
30.435000000000002,174.0315288518739
30.468333333333334,173.76580373269115
30.50166666666667,173.8603251053582
30.535000000000004,173.21103117505993
30.568333333333335,173.76278240190248
30.60166666666667,173.6797385620915
30.635,173.58467023172906
30.668333333333337,173.53178847296496
30.701666666666668,173.346926713948
30.735000000000003,172.74304322084072
30.768333333333334,172.22450248756218
30.80166666666667,172.6170598911071
30.835,172.86829558998807
30.868333333333336,172.38055720213396
30.901666666666667,172.17489589530044
30.935000000000002,172.00176470588235
30.968333333333334,172.57635175282235
31.00166666666667,172.06894519740717
31.035000000000004,172.1787842669845
31.068333333333335,172.31839622641508
31.10166666666667,172.25687536571095
31.135,172.2517688679245
31.168333333333337,172.48345153664303
31.201666666666668,172.52186761229314
31.235000000000003,172.52736904061211
31.268333333333334,172.53713606654784
31.30166666666667,172.02536231884056
31.335,171.8751507840772
31.368333333333336,171.3977900552486
31.401666666666667,171.65672550213026
31.435000000000002,171.9851013110846
31.468333333333334,171.99818071558522
31.50166666666667,171.7797725912627
31.535000000000004,171.86500888099465
31.568333333333335,172.07405177603854
31.60166666666667,172.26526946107785
31.635,171.85357142857146
31.668333333333337,172.27966607036373
31.701666666666668,172.1027926322044
31.735000000000003,172.4346016646849
31.768333333333334,172.48194197750146
31.8,172.5075255869958
31.833333333333336,172.57500000000002
31.866666666666667,172.83832335329342
31.900000000000002,172.57117542823391
31.933333333333337,172.42002301495972
31.96666666666667,172.47004072134962
32.0,172.76837154614933
32.03333333333334,172.7403055229142
32.06666666666667,172.55555555555554
32.1,172.54431885782273
32.13333333333333,172.826643397324
32.16666666666667,172.71529411764703
32.2,173.11604499703967
32.233333333333334,172.81092190252494
32.266666666666666,173.0126582278481
32.300000000000004,172.87037037037035
32.333333333333336,172.91887226697352
32.36666666666667,173.3325661680092
32.4,173.30671296296296
32.43333333333334,173.1644236395553
32.46666666666667,172.7447306791569
32.5,172.91390343222804
32.53333333333334,172.85531667635095
32.56666666666667,173.16164542294322
32.6,173.36306098964326
32.63333333333333,172.8213866039953
32.66666666666667,173.11123986095018
32.7,172.94506136762126
32.733333333333334,173.27675489067894
32.766666666666666,173.01694915254237
32.800000000000004,173.35614849187934
32.833333333333336,173.12100058173357
32.86666666666667,172.81334113516678
32.9,172.8153935185185
32.93333333333334,172.80902777777777
32.96666666666667,172.70833333333331
33.0,172.4037892243931
33.03333333333334,172.6793002915452
33.06666666666667,172.56933019976498
33.1,172.52989934872704
33.13333333333333,172.18319719953325
33.16666666666667,172.5363690124187
33.2,172.19761904761907
33.233333333333334,172.5
33.266666666666666,172.3879813302217
33.300000000000004,172.05098493626883
33.333333333333336,171.9876470588235
33.36666666666667,171.94941176470587
33.400000000000006,171.84912280701755
33.43166666666667,172.06823529411764
33.465,172.21921037124338
33.498333333333335,172.22877358490567
33.531666666666666,172.14850299401198
33.565000000000005,171.90974297668856
33.598333333333336,171.99766763848396
33.63166666666667,171.7743830787309
33.665,171.92100643651258
33.69833333333334,171.61406619385343
33.73166666666667,171.6885342789598
33.765,172.10754604872253
33.79833333333333,172.2495585638611
33.83166666666667,172.13184226015304
33.865,171.9499709133217
33.89833333333333,172.00945067926756
33.93166666666667,171.52261904761906
33.965,171.5779761904762
33.998333333333335,171.6161251504212
34.031666666666666,171.5856973995272
34.065000000000005,171.82953181272507
34.098333333333336,171.8923346986542
34.13166666666667,171.7829736211031
34.165,171.8583186360964
34.19833333333334,171.34501187648456
34.23166666666667,171.34610849056602
34.265,171.33934807916182
34.29833333333333,171.50268336314846
34.33166666666667,171.34363852556478
34.365,171.67464953271028
34.39833333333333,171.68985849056602
34.43166666666667,172.33199079401612
34.465,172.29344073647871
34.498333333333335,171.73690337601863
34.531666666666666,171.4038117927338
34.565000000000005,171.40023543260742
34.598333333333336,171.5109532267614
34.63166666666667,171.39628297362108
34.665,171.57398568019093
34.69833333333334,171.43109756097562
34.73166666666667,171.0339393939394
34.765,171.36501210653753
34.79833333333334,171.57389749702025
34.83166666666667,171.58489461358315
34.865,171.3776057176891
34.89833333333333,171.5248520710059
34.93166666666667,171.52899408284023
34.965,171.83540556542332
34.998333333333335,172.28772753963594
35.031666666666666,172.4550827423168
35.065000000000005,172.12697483908718
35.098333333333336,172.07606787595086
35.13,172.20165094339623
35.163333333333334,172.20931603773585
35.196666666666665,172.39452214452214
35.230000000000004,171.98392857142858
35.263333333333335,172.17869822485207
35.29666666666667,171.78125
35.330000000000005,172.22082585278275
35.36333333333334,172.2482269503546
35.39666666666667,172.50295508274232
35.43,172.5730337078652
35.46333333333334,172.67904191616768
35.49666666666667,172.37633136094675
35.53,172.53846153846155
35.56333333333333,172.38392857142858
35.59666666666667,172.56065959952883
35.63,173.00000000000003
35.663333333333334,172.83962264150944
35.696666666666665,173.0689858490566
35.730000000000004,173.01234567901236
35.763333333333335,173.0435038212816
35.79666666666667,173.11466821885912
35.830000000000005,173.08240141259563
35.86333333333334,172.9233532934132
35.89666666666667,172.4656306037059
35.93,171.94822396146898
35.96333333333334,172.18331374853113
35.99666666666667,172.3142523364486
36.03,172.37225844694723
36.06333333333333,172.74927283304245
36.09666666666667,172.4089285714286
36.13,172.60325105358217
36.163333333333334,172.64311377245508
36.19666666666667,172.5700598802395
36.230000000000004,172.28263473053892
36.263333333333335,172.2377245508982
36.29666666666667,172.2694610778443
36.330000000000005,172.59147424511545
36.36333333333334,172.645821157218
36.39666666666667,172.62770309760373
36.43,172.40059171597633
36.46333333333334,172.59005847953216
36.49666666666667,172.4641598119859
36.53,173.02326934264107
36.56333333333333,172.55336911150863
36.59666666666667,172.47272727272727
36.63,173.1166163141994
36.663333333333334,172.8659485338121
36.69666666666667,173.05525846702318
36.730000000000004,172.43546441495778
36.76166666666667,172.44218094667465
36.795,172.45894001164822
36.82833333333333,172.6193853427896
36.86166666666667,172.57389749702025
36.895,172.50264861683343
36.928333333333335,172.1715976331361
36.961666666666666,172.52212918660285
36.995000000000005,172.2007147111376
37.028333333333336,172.3755980861244
37.06166666666667,172.51873884592504
37.095,172.84610849056602
37.12833333333334,172.50357142857143
37.16166666666667,172.62877442273532
37.195,172.755980861244
37.22833333333334,173.06603773584905
37.26166666666667,173.00359281437125
37.295,172.98164594434576
37.32833333333333,172.81089168162777
37.36166666666667,173.0686796921255
37.395,172.80635491606714
37.428333333333335,172.635231316726
37.461666666666666,172.42814371257484
37.495000000000005,172.3994011976048
37.528333333333336,172.7714624037892
37.56166666666667,172.49880952380954
37.595,172.88862275449102
37.62833333333334,172.83194278903454
37.66166666666667,172.6879094699226
37.695,172.39277108433737
37.72833333333334,172.5661853188929
37.76166666666667,172.42155688622753
37.795,172.59550561797755
37.82833333333333,172.50958083832336
37.86166666666667,172.39698795180723
37.895,172.25636363636363
37.928333333333335,172.7277108433735
37.961666666666666,172.5598570577725
37.995000000000005,172.53186420488387
38.028333333333336,172.42754919499106
38.06166666666667,172.3798449612403
38.095000000000006,172.705953096813
38.12833333333334,172.65729665071768
38.16166666666667,172.55476613380696
38.195,172.89757252812313
38.22833333333334,172.82177033492823
38.26166666666667,172.5375962107756
38.295,172.80412979351033
38.32833333333333,172.5673249551167
38.36166666666667,172.91829484902308
38.395,172.84496124031006
38.428333333333335,172.51265060240965
38.46,172.44383727990285
38.49333333333333,172.53517739025858
38.52666666666667,172.34515935057127
38.56,172.3308733087331
38.593333333333334,172.5203153426319
38.62666666666667,172.3734215273602
38.66000000000001,172.47377938517178
38.693333333333335,172.37223219628964
38.72666666666667,172.33154761904763
38.760000000000005,172.74940476190477
38.79333333333334,172.78371810449573
38.82666666666667,173.1193045563549
38.86,172.87871581450653
38.89333333333334,172.9201905896367
38.92666666666667,172.86323268206039
38.96,172.89958407605468
38.99333333333333,172.9079025549614
39.02666666666667,172.85383244206776
39.06,173.41362821279137
39.093333333333334,172.95000000000002
39.12666666666667,173.18268656716418
39.16000000000001,172.9718056388722
39.193333333333335,173.25252525252526
39.22666666666667,172.7139393939394
39.260000000000005,173.13071895424838
39.29333333333334,172.9499105545617
39.32666666666667,172.95576808129107
39.36,172.9708284714119
39.39333333333334,172.75444839857653
39.42666666666667,173.29521586931153
39.46,172.918680023571
39.49333333333335,172.87942411517696
39.52666666666667,172.79418742586003
39.56,172.40672963400235
39.593333333333334,172.93753682969947
39.62666666666667,173.4545994065282
39.66000000000001,173.02683780630105
39.693333333333335,173.16391509433961
39.72666666666667,173.2968929804373
39.760000000000005,173.7093023255814
39.79333333333334,173.6307966706302
39.82666666666667,173.27261904761906
39.86,173.44919786096258
39.89333333333334,173.3591671486408
39.92666666666667,172.88020833333331
39.96,173.4824090638044
39.99333333333335,172.92100643651258
40.02666666666667,173.54217568353693
40.06,173.31127733026466
40.09166666666667,173.46986541837333
40.125,173.26736111111111
40.15833333333334,173.1697549312612
40.19166666666667,173.02389486260452
40.225,173.21280379371663
40.25833333333333,173.173887587822
40.29166666666667,173.10766530134583
40.325,173.09016393442624
40.358333333333334,172.94251497005988
40.391666666666666,172.86979785969083
40.425000000000004,172.98664343786294
40.458333333333336,172.50588235294117
40.49166666666667,172.69958604376112
40.525000000000006,172.6
40.55833333333334,172.9387269482451
40.59166666666667,172.74630396215258
40.625,172.8574807806032
40.65833333333334,172.78023952095808
40.69166666666667,172.48194197750146
40.725,172.59457831325304
40.75833333333333,172.44790419161677
40.79166666666667,172.26159334126038
40.825,172.16267942583733
40.858333333333334,172.62107756068679
40.89166666666667,172.64890467732386
40.925000000000004,172.80898203592815
40.958333333333336,172.53652694610778
40.99166666666667,172.54696789536266
41.025000000000006,172.81212841854932
41.05833333333334,172.3357142857143
41.09166666666667,172.56127886323267
41.125,172.50059523809526
41.15833333333334,172.49107142857144
41.19166666666667,172.3093525179856
41.225,172.33333333333334
41.25833333333333,172.20178571428573
41.29166666666667,171.74263379434757
41.325,172.42967359050445
41.358333333333334,172.25850746268657
41.39166666666667,172.41013553329404
41.425000000000004,171.99583581201665
41.458333333333336,172.26690391459076
41.49166666666667,172.35032602252517
41.525000000000006,172.29142185663923
41.55833333333334,172.12115839243498
41.59166666666667,172.3213866039953
41.625,172.14922711058261
41.65833333333334,172.07669441141496
41.69166666666667,171.9692671394799
41.725,172.0744047619048
41.75833333333333,172.1391812865497
41.79,172.4524361948956
41.82333333333334,172.32086499123318
41.85666666666667,172.35668040023543
41.89,172.19679905157082
41.92333333333334,172.0360793746242
41.95666666666667,172.19903788334335
41.99,172.38679245283018
42.02333333333333,172.50147666863555
42.05666666666667,172.32384341637012
42.09,172.32659131469364
42.123333333333335,172.55231866825207
42.156666666666666,172.31961259079904
42.190000000000005,172.080577269994
42.223333333333336,172.08383594692398
42.25666666666667,171.8192557590077
42.290000000000006,171.9139344262295
42.32333333333334,171.81356932153392
42.35666666666667,172.07498535442298
42.39,172.1072056239016
42.42333333333334,171.84913536076326
42.45666666666667,172.2410071942446
42.49,172.0587529976019
42.52333333333333,172.04701627486438
42.55666666666667,172.55947399880452
42.59,172.4944346807264
42.623333333333335,172.4735294117647
42.656666666666666,171.89105979869743
42.690000000000005,172.63877430760164
42.723333333333336,172.8249708284714
42.75666666666667,173.06047904191615
42.790000000000006,172.760934691432
42.82333333333334,172.40506329113924
42.85666666666667,172.44411414982162
42.89,172.45838287752673
42.92333333333334,172.25386444708678
42.95666666666667,172.25936942296252
42.99,172.66299303944314
43.02333333333333,172.29917550058892
43.05666666666667,172.4131842260153
43.09,172.23428232502968
43.123333333333335,172.0777843252799
43.156666666666666,171.97384066587395
43.190000000000005,172.25622775800713
43.223333333333336,172.22657176749703
43.25666666666667,171.7910005920663
43.290000000000006,172.28588374851722
43.32333333333334,172.2099644128114
43.35666666666667,172.4690781796966
43.39,172.77465630603703
43.42166666666667,172.5117785630153
43.455000000000005,172.38544798556825
43.48833333333334,172.20796197266787
43.52166666666667,172.64468211527037
43.555,172.49113475177305
43.58833333333334,172.71462544589772
43.62166666666667,172.52556480380497
43.655,172.67753201396974
43.68833333333334,172.40351906158358
43.72166666666667,171.74389517569983
43.755,172.11256700416916
43.788333333333334,172.242747187685
43.82166666666667,172.21533923303835
43.855000000000004,171.81109799291616
43.888333333333335,172.02676977989293
43.92166666666667,171.5115452930728
43.955000000000005,171.4895771292436
43.98833333333334,171.6951807228916
44.02166666666667,171.8277108433735
44.055,171.89578313253014
44.08833333333334,171.88373493975905
44.12166666666667,171.68674698795184
44.155,171.58606313281717
44.18833333333334,171.47957371225576
44.22166666666667,171.57891602144136
44.255,171.5375962107756
44.288333333333334,171.4937388193202
44.32166666666667,171.71522781774578
44.355000000000004,171.6289038579302
44.388333333333335,171.82529016493586
44.42166666666667,171.22930315664087
44.455000000000005,171.13625592417063
44.48833333333334,171.4343373493976
44.52166666666667,171.186018957346
44.555,171.26248477466504
44.58833333333334,171.19417475728153
44.62166666666667,171.58834244080145
44.655,170.4637857577602
44.68833333333334,171.2517942583732
44.72166666666667,171.6816779765577
44.755,171.4445754716981
44.788333333333334,171.42908438061042
44.82166666666667,171.60035842293905
44.855000000000004,171.02482269503545
44.888333333333335,171.0841791044776
44.92166666666667,170.90481927710846
44.955000000000005,171.03764420157864
44.98833333333334,170.73028296207104
45.02166666666667,170.82127913927076
45.055,171.26558752997602
45.08833333333334,171.28717026378897
45.120000000000005,171.27794204612655
45.153333333333336,171.1885342789598
45.18666666666667,170.95192878338278
45.220000000000006,171.27697841726618
45.25333333333334,171.30359281437126
45.28666666666667,171.42095808383235
45.32,171.40919811320754
45.35333333333334,171.3371462974112
45.38666666666667,171.40519787359716
45.42,171.2792632204397
45.45333333333333,171.06670567583382
45.48666666666667,170.8929198361615
45.52,171.18419489007726
45.553333333333335,171.31480397893506
45.58666666666667,171.15985790408524
45.620000000000005,171.0905861456483
45.653333333333336,171.25269461077843
45.68666666666667,171.3032640949555
45.720000000000006,171.36002372479243
45.75333333333334,171.48100526008182
45.78666666666667,171.9660620245758
45.82,171.89209905660377
45.85333333333334,172.02181603773585
45.88666666666667,171.8279695728496
45.92,171.4681603773585
45.95333333333333,171.33177296664715
45.98666666666667,171.7700409596255
46.02,171.49678174370976
46.053333333333335,172.1909722222222
46.08666666666667,171.81904761904764
46.120000000000005,171.42422469280282
46.153333333333336,171.4885361552028
46.18666666666667,171.54660529344073
46.220000000000006,171.75868055555554
46.25333333333334,171.4809523809524
46.28666666666667,171.68671828469328
46.32,171.97391819798457
46.35333333333334,171.81000595592616
46.38666666666667,171.7861822513401
46.42,171.96996466431094
46.45333333333333,171.8766724840023
46.48666666666667,172.14260969976905
46.52,172.09487776484283
46.553333333333335,172.1073546856465
46.58666666666667,171.86851628468034
46.620000000000005,171.74520383693044
46.653333333333336,171.82450922070197
46.68666666666667,172.27347903130538
46.720000000000006,172.1397977394408
46.75166666666667,172.46401404330018
46.78500000000001,172.59706744868035
46.818333333333335,172.8483080513419
46.85166666666667,173.08490566037736
46.885000000000005,172.97071129707112
46.91833333333334,172.98690476190478
46.95166666666667,171.89646918013165
46.98500000000001,172.08433014354065
47.01833333333334,172.08804283164784
47.05166666666667,172.43227326266194
47.085,172.33937975424226
47.11833333333335,172.3606748109366
47.15166666666667,172.86769049025398
47.185,172.74417214584577
47.218333333333334,172.57701564380267
47.25166666666667,172.3635287152161
47.28500000000001,171.30252100840335
47.318333333333335,171.43385922330094
47.35166666666667,171.0908540278619
47.385000000000005,171.366444579043
47.41833333333334,171.27865853658537
47.45166666666667,171.4609756097561
47.48500000000001,171.34766807995155
47.51833333333334,171.25365853658536
47.55166666666667,171.7359756097561
47.585,171.7259350091968
47.61833333333335,171.61431170406308
47.65166666666667,171.75291232372777
47.685,171.47768395657417
47.718333333333334,171.53475609756097
47.75166666666667,171.49485160508783
47.78500000000001,171.69230769230768
47.818333333333335,171.906362545018
47.85166666666667,172.0066185318893
47.885000000000005,172.1896447922938
47.91833333333334,172.17598097502972
47.95166666666667,172.41914387633767
47.98500000000001,172.35881998795907
48.01833333333334,172.2687981053878
48.05166666666667,172.52842609216037
48.085,172.0373269114991
48.11833333333335,172.04635761589404
48.15166666666667,171.87492410443232
48.185,171.91691751956654
48.218333333333334,171.61709813365442
48.25166666666667,171.6660682226212
48.28500000000001,171.76569297700433
48.318333333333335,170.99209245742094
48.35166666666667,171.49816176470588
48.385000000000005,171.00839328537168
48.41833333333334,172.3347280334728
48.45,172.30593881223754
48.483333333333334,172.0928961748634
48.51666666666667,172.02697841726618
48.550000000000004,172.15517241379308
48.583333333333336,172.33214920071046
48.61666666666667,172.28117505995203
48.650000000000006,172.20330969267138
48.68333333333334,172.0065671641791
48.71666666666667,171.94057623049218
48.75,172.2681331747919
48.78333333333334,172.19628964691802
48.81666666666667,172.207104154124
48.85,172.2588164973102
48.88333333333334,172.35265989240884
48.91666666666667,172.3016157989228
48.95,172.218192627824
48.983333333333334,172.64556213017752
49.01666666666667,172.7553827751196
49.050000000000004,172.60645161290321
49.083333333333336,172.47257383966243
49.11666666666667,172.45400593471808
49.150000000000006,172.42355740630578
49.18333333333334,172.90029673590504
49.21666666666667,172.34880952380954
49.25,172.414912808178
49.28333333333334,172.22323049001815
49.31666666666667,172.59583333333336
49.35,172.56581298391902
49.38333333333334,172.6842744383728
49.41666666666667,172.48953974895397
49.45,172.4592988710636
49.483333333333334,172.12617924528303
49.51666666666667,172.7653000594177
49.550000000000004,172.39091981132074
49.583333333333336,172.6540312876053
49.61666666666667,172.6413874191652
49.650000000000006,172.42364824717768
49.68333333333334,172.20766008378217
49.71666666666667,172.36125965537732
49.75,172.10770156438028
49.78333333333334,172.37789661319073
49.81666666666667,172.67632850241546
49.85,172.1697438951757
49.88333333333334,172.4868263473054
49.91666666666667,172.88756692444974
49.95,172.81328545780968
49.983333333333334,172.71846981470412
50.01666666666667,172.90914560770156
50.050000000000004,173.17185628742516
50.08166666666667,173.21689634511685
50.115,172.73578199052133
50.14833333333333,172.89803220035776
50.18166666666667,172.3347613219094
50.215,172.8122009569378
50.248333333333335,172.73983253588517
50.28166666666667,172.4212765957447
50.315000000000005,172.90574018126887
50.348333333333336,173.01913875598086
50.38166666666667,172.4981884057971
50.415000000000006,172.4193742478941
50.44833333333334,172.46875
50.48166666666667,172.42567164179104
50.515,172.02522522522523
50.54833333333334,172.45014925373135
50.58166666666667,172.25492537313434
50.615,172.42277877161598
50.64833333333333,172.30805687203792
50.68166666666667,172.15100060642814
50.715,172.3685152057245
50.748333333333335,172.3062686567164
50.78166666666667,172.15940298507462
50.815000000000005,172.23592175459393
50.848333333333336,172.14463544754
50.88166666666667,172.1726618705036
50.915000000000006,172.3483556638246
50.94833333333334,172.06029232643118
50.98166666666667,171.50271575135787
51.015,171.76913730255163
51.04833333333334,171.67911818738517
51.08166666666667,171.77805178791616
51.115,171.88014527845039
51.14833333333333,172.14346764346763
51.18166666666667,172.54818523153943
51.215,172.1319018404908
51.248333333333335,171.5049019607843
51.28166666666667,171.66585365853658
51.315000000000005,172.016898008449
51.348333333333336,171.94107035478052
51.38166666666667,172.07459066100668
51.415000000000006,171.65024330900243
51.44833333333334,171.95078979343862
51.48166666666667,171.91737545565005
51.515,172.1336573511543
51.54833333333334,171.56317689530687
51.58166666666667,171.55475330926595
51.615,171.48856799037304
51.64833333333333,171.63636363636363
51.68166666666667,171.17737003058102
51.715,171.25826193390452
51.748333333333335,171.36880733944952
51.78,171.52538226299694
51.81333333333334,171.59309494451296
51.84666666666667,171.53027522935778
51.88,171.50308261405672
51.913333333333334,171.9914110429448
51.94666666666667,171.93649815043156
51.980000000000004,171.90676416819014
52.013333333333335,171.80552147239266
52.04666666666667,171.61652281134403
52.080000000000005,171.62906192519927
52.11333333333334,171.74101157830592
52.14666666666667,171.23174411587206
52.18000000000001,171.1726618705036
52.21333333333334,172.19755351681957
52.24666666666667,171.6110091743119
52.28,172.11559633027522
52.31333333333334,171.65015290519875
52.34666666666667,171.68554572271387
52.38,171.84223155368926
52.413333333333334,171.6527018822101
52.44666666666667,171.59562841530055
52.480000000000004,171.66489675516223
52.513333333333335,171.60648967551623
52.54666666666667,172.05911029859843
52.580000000000005,171.80206435944143
52.61333333333334,172.04394942805538
52.64666666666667,171.74741955069825
52.68000000000001,171.75980687990344
52.71333333333334,171.65998785670917
52.74666666666667,172.3219628964692
52.78,172.27844311377245
52.81333333333334,171.8959467634604
52.84666666666667,171.3036902601331
52.88,171.7644603458557
52.913333333333334,171.42649727767696
52.94666666666667,171.45388788426763
52.980000000000004,171.95229468599032
53.013333333333335,172.31657690005983
53.04666666666667,172.61445051608987
53.080000000000005,172.61566049013746
53.11333333333334,172.61793020457282
53.14666666666667,172.56979542719617
53.18000000000001,172.85086155674392
53.21333333333334,172.55099577549788
53.24666666666667,172.56007172743574
53.28,172.376130198915
53.31333333333334,172.5476333133613
53.34666666666667,172.3468899521531
53.38,171.9634591961023
53.41166666666667,172.15205395462905
53.445,172.3396689147762
53.47833333333334,171.9484412470024
53.51166666666667,172.6563071297989
53.545,172.0716454159077
53.57833333333334,172.31613677264545
53.61166666666667,172.93075117370893
53.645,173.07420706163973
53.678333333333335,173.00777977259125
53.71166666666667,173.13666072489602
53.745000000000005,172.92160383004187
53.778333333333336,173.07168458781362
53.81166666666667,172.94530321046372
53.845000000000006,173.03862150920975
53.87833333333334,172.99820681410637
53.91166666666667,172.64171122994654
53.945,173.17554125219428
53.97833333333334,172.75882704967086
54.01166666666667,172.84907902554963
54.045,172.83443708609272
54.07833333333334,172.87778446718843
54.11166666666667,173.0119976004799
54.145,172.8258527827648
54.178333333333335,172.70283018867923
54.21166666666667,173.02447980416156
54.245000000000005,172.45741512805242
54.278333333333336,172.5616272009715
54.31166666666667,172.82694610778444
54.345000000000006,172.83056872037915
54.37833333333334,172.52369668246448
54.41166666666667,172.30750605326878
54.445,171.71256764882742
54.47833333333334,172.42168674698797
54.51166666666667,172.45334136062613
54.545,172.4665863937387
54.57833333333334,172.51354605659242
54.61166666666667,172.03903903903904
54.645,172.27332931968692
54.678333333333335,172.14233353695786
54.71166666666667,171.9945155393053
54.745000000000005,172.0802875973637
54.778333333333336,171.92168674698797
54.81166666666667,171.78855421686748
54.845000000000006,171.75104727707958
54.87833333333334,171.79159049360146
54.91166666666667,172.07849196538936
54.945,172.0102533172497
54.97833333333334,171.76375598086125
55.01166666666667,171.71199011124844
55.045,172.21779141104295
55.07833333333334,171.75045871559632
55.11000000000001,171.80073126142597
55.14333333333334,171.71541742839733
55.17666666666667,172.10306748466257
55.21,171.87613843351548
55.24333333333335,172.04371584699456
55.27666666666667,171.42595978062158
55.31,171.42350061199508
55.343333333333334,171.64644607843138
55.37666666666667,171.79889638258737
55.41000000000001,172.13803680981596
55.443333333333335,171.80195003046924
55.476666666666674,171.76640098099324
55.510000000000005,171.76125848241827
55.54333333333334,171.656652360515
55.57666666666667,171.2286401925391
55.61000000000001,171.23049001814883
55.64333333333334,171.61472915398662
55.67666666666667,171.33212996389892
55.71,171.87174833635814
55.74333333333335,171.77025392986698
55.77666666666667,171.78281911675742
55.81,171.61533779671333
55.843333333333334,171.62335329341317
55.87666666666667,172.09485924112604
55.91000000000001,172.3926380368098
55.943333333333335,172.50243605359316
55.976666666666674,172.43083485679466
56.010000000000005,172.13983050847457
56.04333333333334,172.11311672683513
56.07666666666667,172.08904933814682
56.11000000000001,172.02948255114322
56.14333333333334,172.19237861094038
56.17666666666667,172.46172539489672
56.21,172.5737704918033
56.24333333333335,172.53341433778857
56.27666666666667,172.54873646209387
56.31,172.41636582430806
56.343333333333334,172.0901339829476
56.37666666666667,171.82162492364083
56.41000000000001,171.5340282035561
56.443333333333335,172.1139927623643
56.476666666666674,172.41440886699507
56.510000000000005,172.1630303030303
56.54333333333334,172.39926962872795
56.57666666666667,172.54462659380692
56.61000000000001,172.1710843373494
56.64333333333334,172.4736211031175
56.67666666666667,172.2936221419976
56.71,172.3634719710669
56.74166666666667,172.28098676293624
56.775000000000006,172.23746223564956
56.80833333333334,171.9069486404834
56.84166666666667,172.31287605294827
56.87500000000001,172.19768151311774
56.90833333333334,172.02779456193355
56.94166666666667,171.75045871559632
56.975,171.93700305810395
57.00833333333334,171.8314268512944
57.04166666666667,172.22384428223845
57.075,172.05565749235473
57.108333333333334,172.33761467889906
57.14166666666667,172.15259348612784
57.175000000000004,172.33940497874926
57.208333333333336,171.81524390243902
57.24166666666667,172.3891924711597
57.275000000000006,171.86698621929298
57.30833333333334,172.3558912386707
57.34166666666667,171.86602870813397
57.37500000000001,172.1751956652619
57.40833333333334,172.09532483302976
57.44166666666667,171.78371810449573
57.475,171.9556769884639
57.50833333333334,171.9505428226779
57.54166666666667,171.9684274438373
57.575,172.16012084592145
57.608333333333334,172.09365558912387
57.64166666666667,171.7477258944815
57.675000000000004,171.193769470405
57.708333333333336,171.3448488587292
57.74166666666667,171.68176254589963
57.775000000000006,171.78102189781023
57.80833333333334,172.09909365558912
57.84166666666667,171.9638036809816
57.87500000000001,171.87361963190185
57.90833333333334,172.2368580060423
57.94166666666667,171.78787878787878
57.975,171.67153284671534
58.00833333333334,171.69277108433735
58.04166666666667,171.28399518652228
58.075,171.2930204572804
58.108333333333334,171.08834355828222
58.14166666666667,171.54812998160637
58.175000000000004,171.90245398773007
58.208333333333336,172.01716738197425
58.24166666666667,171.75770392749246
58.275000000000006,171.74969325153376
58.30833333333334,171.6603310852238
58.34166666666667,171.45426829268294
58.37500000000001,171.59268292682927
58.40833333333334,171.14780457637602
58.440000000000005,171.07761732851986
58.473333333333336,171.0099502487562
58.50666666666667,170.930387409201
58.540000000000006,171.17764350453172
58.57333333333334,170.8813559322034
58.60666666666667,170.7397094430993
58.64,170.64588377723973
58.67333333333334,171.0140243902439
58.70666666666667,171.14619532654285
58.74,171.21857923497268
58.77333333333334,171.54805970149255
58.80666666666667,172.0293062200957
58.84,171.88217880402604
58.873333333333335,172.16190476190476
58.90666666666667,171.74896142433235
58.940000000000005,171.85999999999999
58.973333333333336,171.88875809299586
59.00666666666667,172.03690476190476
59.040000000000006,172.1551622418879
59.07333333333334,171.59833134684146
59.10666666666667,171.35147928994084
59.14,171.22708456534596
59.17333333333334,171.39483173076923
59.20666666666667,171.0125748502994
59.24,171.10415412402168
59.27333333333334,171.5494901019796
59.30666666666667,171.51475015051173
59.34,171.34172661870502
59.373333333333335,171.37637698898408
59.40666666666667,171.47442143727162
59.440000000000005,171.79578313253015
59.473333333333336,171.06574185765982
59.50666666666667,171.73753753753752
59.540000000000006,171.61304082876296
59.57333333333334,171.31442365721182
59.60666666666667,171.0774818401937
59.64,170.69283489096574
59.67333333333334,170.91178247734138
59.70666666666667,170.23472474289173
59.74,171.01900674432864
59.77333333333334,171.12877871825876
59.80666666666667,170.55596330275228
59.84,170.92939046469525
59.873333333333335,170.61510791366905
59.90666666666667,171.27937649880096
59.940000000000005,171.33011466505732
