Time,Signal_1
0.0,170.421546961326
0.03333333333333333,171.5821309655938
0.06666666666666667,170.57709497206702
0.1,170.74469273743014
0.13333333333333333,170.7713651498335
0.16666666666666669,170.58839933073062
0.19833333333333333,170.3575042158516
0.2316666666666667,170.34907251264755
0.265,170.5495750708215
0.29833333333333334,170.99035734543392
0.33166666666666667,170.5632311977716
0.36500000000000005,171.0601461495222
0.3983333333333334,170.96346261944913
0.4316666666666667,171.14446318156268
0.465,171.11579539066892
0.49833333333333335,171.26082068577853
0.5316666666666667,171.20282485875705
0.5650000000000002,170.83568605307735
0.5983333333333334,170.8107202680067
0.6316666666666667,170.4749295774648
0.665,170.8227558604917
0.6983333333333334,170.34826427771557
0.7316666666666667,171.06069200226887
0.765,170.49367816091953
0.7983333333333333,170.28403361344536
0.8316666666666667,170.3376993166287
0.8650000000000001,170.1267605633803
0.8983333333333335,170.34073251942286
0.9316666666666668,169.877539503386
0.9650000000000001,170.27354765933447
0.9983333333333334,170.30220713073007
1.0316666666666667,170.67879127028542
1.0650000000000002,170.23982398239824
1.0983333333333334,171.21259842519686
1.1316666666666668,170.43536653609402
1.165,170.61643059490083
1.1983333333333335,170.62842753217686
1.2316666666666667,170.65864577504198
1.2650000000000001,170.6007972665148
1.2983333333333333,170.63496583143507
1.3316666666666668,170.37927107061503
1.365,170.08
1.3983333333333334,170.19211267605635
1.4316666666666669,170.14028169014085
1.465,170.60135516657255
1.4983333333333335,170.52230378317333
1.5316666666666667,170.27083333333334
1.5650000000000002,170.20157657657657
1.5983333333333334,170.33276450511946
1.6316666666666668,170.63083048919225
1.665,170.63082231167337
1.6983333333333335,170.99199084668192
1.7316666666666667,170.37661607644745
1.7650000000000001,170.80249009620826
1.7983333333333333,170.96512935883015
1.8316666666666668,170.5221483942414
1.8633333333333335,170.41985579589576
1.8966666666666667,170.11912751677852
1.9300000000000002,170.35017026106698
1.9633333333333334,170.30491990846681
1.9966666666666668,170.3312356979405
2.0300000000000002,169.98793796668582
2.0633333333333335,170.29347826086956
2.0966666666666667,170.51106069200227
2.1300000000000003,170.34153318077804
2.1633333333333336,170.46831183398766
2.1966666666666668,170.58870056497176
2.23,170.6952169076752
2.2633333333333336,170.66907675194662
2.296666666666667,170.63806380638064
2.33,170.32170978627673
2.3633333333333333,170.68288590604027
2.396666666666667,170.99832589285714
2.43,170.87732132808105
2.4633333333333334,170.18478873239437
2.496666666666667,170.10197183098592
2.5300000000000002,170.3765875207068
2.5633333333333335,170.2229767968308
2.5966666666666667,170.2110862262038
2.6300000000000003,170.174638487208
2.6633333333333336,170.18508132361188
2.6966666666666668,169.9115990990991
2.73,169.82158836689038
2.7633333333333336,170.17776554760593
2.796666666666667,170.40888638920137
2.83,170.31211613623674
2.8633333333333337,170.37208008898776
2.896666666666667,170.5537237066515
2.93,169.98850574712642
2.9633333333333334,170.2251843448667
2.996666666666667,170.18665158371041
3.0300000000000002,170.05552470849528
3.0633333333333335,170.01638418079096
3.0966666666666667,169.95863610955843
3.1300000000000003,169.91713014460512
3.1633333333333336,170.5265780730897
3.1966666666666668,170.6640581330352
3.2300000000000004,170.7213570634038
3.2633333333333336,170.71857619577307
3.296666666666667,170.76807563959954
3.33,170.4468904788112
3.3633333333333337,170.34177215189874
3.396666666666667,170.3055403181569
3.43,170.05833333333334
3.4633333333333334,170.0492256637168
3.496666666666667,169.94198895027625
3.5283333333333338,169.89048672566372
3.561666666666667,169.9252077562327
3.595,169.84046052631578
3.6283333333333334,170.47689768976898
3.661666666666667,169.68354430379748
3.6950000000000003,169.89193729003358
3.7283333333333335,169.91241685144124
3.7616666666666667,169.950110864745
3.7950000000000004,169.99226519337017
3.8283333333333336,169.87597765363128
3.861666666666667,169.9813596491228
3.8950000000000005,169.71125975473802
3.9283333333333337,169.70489038785834
3.961666666666667,169.9624359704041
3.995,170.89721749006247
4.028333333333333,170.05070422535212
4.0616666666666665,169.7414277684092
4.095000000000001,169.69533445756042
4.128333333333334,169.80200780814278
4.161666666666667,169.95649749023983
4.195,169.82011173184355
4.2283333333333335,169.9860956618465
4.261666666666667,169.87127599775155
4.295,169.6627318718381
4.328333333333334,169.24632768361582
4.361666666666667,170.0141482739106
4.395000000000001,169.78028169014087
4.428333333333334,169.90219224283305
4.461666666666667,169.73524451939292
4.495,170.4488320355951
4.528333333333333,170.04496908375492
4.5616666666666665,169.68071950534008
4.595000000000001,169.86453063518832
4.628333333333334,169.97863968521642
4.661666666666667,170.14839797639124
4.695,170.00225098480587
4.7283333333333335,169.63966942148758
4.761666666666667,169.39420935412025
4.795,169.3712507074137
4.828333333333334,169.9659671015315
4.861666666666667,169.2911748173131
4.895000000000001,169.56225352112676
4.928333333333334,169.24689265536725
4.961666666666667,169.43732433951658
4.995,169.59286112660348
5.028333333333333,169.15870307167233
5.061666666666668,169.03970504821328
5.095000000000001,168.48035914702584
5.128333333333334,168.73299606520519
5.161666666666667,168.73244147157192
5.193333333333333,169.13827993254637
5.226666666666667,169.24060572069547
5.260000000000001,169.4972191323693
5.293333333333334,169.47441601779755
5.326666666666667,169.2703003337041
5.36,169.08120133481646
5.3933333333333335,169.33203559510568
5.426666666666667,169.74530983513358
5.46,169.5045045045045
5.493333333333334,169.35585585585585
5.526666666666667,169.42603878116344
5.5600000000000005,169.21078976640712
5.593333333333334,169.36615732880588
5.626666666666667,169.19885057471265
5.66,169.19050343249427
5.693333333333333,168.97264957264957
5.7266666666666675,169.65593784683685
5.760000000000001,169.42905405405406
5.793333333333334,169.4828539823009
5.826666666666667,169.26004464285714
5.86,168.88615560640733
5.8933333333333335,168.99656750572083
5.926666666666667,169.81394041596403
5.96,169.18760285244105
5.993333333333334,169.46384872080088
6.026666666666667,169.1861761426979
6.0600000000000005,169.3707042253521
6.093333333333334,169.40237691001698
6.126666666666667,169.66533180778032
6.16,169.86363636363637
6.193333333333333,169.24986056887897
6.2266666666666675,169.6001134429949
6.260000000000001,169.05346985210466
6.293333333333334,169.39641657334826
6.326666666666667,169.23692992213572
6.36,169.43325917686317
6.3933333333333335,169.23145071982282
6.426666666666667,169.41991101223581
6.460000000000001,169.49132624510355
6.493333333333334,169.51934941110488
6.526666666666667,169.44400895856663
6.5600000000000005,169.13415315818892
6.593333333333334,169.11142217245242
6.626666666666667,169.24227093872963
6.66,169.27146042363432
6.693333333333333,169.35806632939855
6.7266666666666675,169.36040044493882
6.760000000000001,169.46718576195772
6.793333333333334,169.7269187986652
6.826666666666667,169.3011049723757
6.858333333333333,169.3071348940914
6.8916666666666675,169.43099547511315
6.925000000000001,168.83094713656388
6.958333333333334,169.73592342342343
6.991666666666667,169.53966480446925
7.025,169.48887652947718
7.058333333333334,169.6278941565601
7.091666666666667,169.32411504424778
7.125000000000001,169.446519524618
7.158333333333334,169.57469342251952
7.191666666666667,170.00565930956424
7.2250000000000005,169.74761101742553
7.258333333333334,169.68184373243395
7.291666666666667,169.39421440726036
7.325,169.2023742227247
7.358333333333333,168.8590529247911
7.3916666666666675,169.31165158371041
7.425000000000001,169.42760180995478
7.458333333333334,169.32617297908422
7.491666666666667,169.84568584070797
7.525,169.17105263157896
7.558333333333334,169.56159822419534
7.591666666666667,169.17448512585813
7.625000000000001,169.64492342597845
7.658333333333334,169.34233199310742
7.691666666666667,169.6350198976691
7.7250000000000005,169.2222844344905
7.758333333333334,169.23203169213357
7.791666666666667,169.4003359462486
7.825,169.1912846632711
7.858333333333334,169.39137737961926
7.8916666666666675,170.02745995423342
7.925000000000001,169.61590145576707
7.958333333333334,169.46032639279684
7.991666666666667,169.61254199328107
8.025,169.52239641657334
8.058333333333334,169.41265397536395
8.091666666666667,169.5580204778157
8.125,169.8398415393322
8.158333333333333,169.23855835240275
8.191666666666666,169.36821040594626
8.225,169.65860517435323
8.258333333333335,169.60576923076925
8.291666666666668,169.45135746606337
8.325000000000001,169.11384439359267
8.358333333333334,169.14551607445011
8.391666666666667,169.70810210876803
8.425,169.74065811489126
8.458333333333334,169.58379888268155
8.491666666666667,169.62208657047725
8.523333333333333,169.66383701188457
8.556666666666667,169.59765625
8.59,169.88440265486724
8.623333333333333,169.98159509202455
8.656666666666668,169.90099557522123
8.690000000000001,169.83754918493537
8.723333333333334,169.63590320765337
8.756666666666668,169.7838910947249
8.790000000000003,169.79691075514873
8.823333333333334,169.88686753837408
8.856666666666667,169.8191068400226
8.89,169.56761363636363
8.923333333333334,169.2340425531915
8.956666666666667,169.58914285714286
8.99,169.95248868778282
9.023333333333333,169.42391304347825
9.056666666666667,169.66160764474424
9.09,169.84414864115365
9.123333333333333,169.9312257348863
9.156666666666668,169.8585690515807
9.190000000000001,169.89544688026982
9.223333333333334,169.77740303541316
9.256666666666668,169.71871539313398
9.290000000000003,169.94739787353106
9.323333333333334,169.49774774774775
9.356666666666667,169.32427843803057
9.39,170.0376522702104
9.423333333333334,170.11461794019934
9.456666666666667,170.00719822812846
9.49,170.0393133997785
9.523333333333333,170.16059602649005
9.556666666666667,169.91805094130675
9.59,170.01434878587196
9.623333333333333,170.16713247624372
9.656666666666668,170.26247896803142
9.690000000000001,170.17663499161543
9.723333333333334,169.9904974846283
9.756666666666668,170.04296212549463
9.790000000000003,169.88298473713962
9.823333333333334,170.13122171945702
9.856666666666667,169.87047511312218
9.89,169.72940503432494
9.923333333333334,169.7942012507106
9.956666666666667,169.87443438914028
9.99,169.48096304591266
10.023333333333333,170.0231769361221
10.056666666666667,169.78667413213887
10.09,169.52911534154535
10.123333333333337,169.44175576814857
10.156666666666668,169.7838143746463
10.188333333333334,169.87657142857145
10.221666666666668,169.93028571428573
10.255,169.7363687464868
10.288333333333334,169.66275167785236
10.321666666666667,169.28274311410905
10.355,169.06768189509307
10.388333333333334,169.02155416903008
10.421666666666667,169.32215909090908
10.455,168.8048359240069
10.488333333333333,169.0867605633803
10.521666666666667,169.0180281690141
10.555000000000001,169.06533776301217
10.588333333333335,168.75836642087353
10.621666666666668,168.67093541202672
10.655000000000001,168.54804469273742
10.688333333333334,168.83726150392818
10.721666666666668,168.92224128073184
10.755,168.85401459854015
10.788333333333334,168.93732193732194
10.821666666666667,168.57670772676371
10.855,168.8017094017094
10.888333333333334,168.6052183777652
10.921666666666667,168.4227039361095
10.955,168.5491990846682
10.988333333333333,168.6321510297483
11.021666666666667,169.17760180995478
11.055000000000001,169.1719457013575
11.088333333333335,168.903900508762
11.121666666666668,168.7529544175577
11.155000000000001,168.71604248183343
11.188333333333334,168.54723309111236
11.221666666666668,168.79082774049218
11.255,168.89287717330342
11.288333333333334,169.14221724524077
11.321666666666667,168.97984322508398
11.355,169.1063122923588
11.388333333333334,169.68927181767648
11.421666666666667,169.20646221248631
11.455,169.2570170610897
11.488333333333333,168.9798882681564
11.521666666666668,169.2445439283716
11.555000000000001,169.53274139844618
11.588333333333335,169.6640537513998
11.621666666666668,169.48004496908376
11.655000000000001,169.47847959754054
11.688333333333334,169.44102850754612
11.721666666666668,169.5142537730576
11.755,169.2281284606866
11.788333333333334,169.43507588532884
11.821666666666667,169.47295036252092
11.853333333333333,169.31567328918322
11.886666666666667,169.44426048565123
11.92,169.67988826815642
11.953333333333335,169.206340378198
11.986666666666668,169.54705558613097
12.020000000000001,169.56796917996698
12.053333333333335,169.62001124227095
12.086666666666668,169.1067853170189
12.120000000000001,169.1043046357616
12.153333333333334,169.3569436698271
12.186666666666667,169.3909648633575
12.22,169.49581706636923
12.253333333333334,169.17163355408388
12.286666666666667,169.24195338512763
12.32,168.88650479954828
12.353333333333333,168.7750141322781
12.386666666666667,169.13542249580303
12.42,168.85609893198426
12.453333333333335,169.15904017857142
12.486666666666668,168.93533749290984
12.520000000000001,168.95727937043284
12.553333333333335,168.89955106621775
12.586666666666668,168.8226628895184
12.620000000000001,169.2351290684624
12.653333333333334,169.14821029082773
12.686666666666667,168.9210968102966
12.72,169.25359911406423
12.753333333333334,168.8099032441662
12.786666666666667,168.91676104190262
12.82,169.10862262038074
12.853333333333333,169.1373748609566
12.886666666666667,169.19933554817274
12.920000000000002,168.80099228224918
12.953333333333335,169.10189309576836
12.986666666666668,168.9933407325194
13.020000000000001,168.99446902654867
13.053333333333335,168.72062956717258
13.086666666666668,168.96130117779023
13.120000000000001,168.88446438586652
13.153333333333334,169.16013437849944
13.186666666666667,169.1206896551724
13.22,169.85378151260502
13.253333333333334,169.28992765720645
13.286666666666667,169.24678231673198
13.32,169.3650881057269
13.353333333333333,169.29129955947138
13.386666666666667,169.28017718715392
13.420000000000002,169.12706552706553
13.453333333333335,168.95308924485127
13.486666666666668,169.5403087478559
13.518333333333334,169.41988636363635
13.551666666666668,169.3546218487395
13.585,169.29503625209148
13.618333333333334,169.16076447442384
13.651666666666667,169.17663499161543
13.685,169.38031319910513
13.718333333333334,169.19159663865545
13.751666666666667,169.08993816750984
13.785,169.17218543046357
13.818333333333333,168.7254575707155
13.851666666666668,168.85912368275098
13.885000000000002,168.58572231590782
13.918333333333335,168.68977082168809
13.951666666666668,168.69424259362773
13.985000000000001,169.58361018826133
14.018333333333334,169.86781929726715
14.051666666666668,169.4506104328524
14.085,169.74172185430464
14.118333333333334,169.28457598178716
14.151666666666667,169.75441501103754
14.185,169.2399547255235
14.218333333333334,169.3453116226839
14.251666666666667,169.58398656215005
14.285,169.0648769574944
14.318333333333335,169.28232636928288
14.351666666666668,169.54535274356104
14.385000000000002,169.21682665160924
14.418333333333335,168.9994340690436
14.451666666666668,169.41150195421554
14.485000000000001,168.87814421464506
14.518333333333334,169.04586129753915
14.551666666666668,169.13209668353008
14.585,168.9055338177753
14.618333333333334,169.0292299044407
14.651666666666667,169.08445190156598
14.685,168.95248742314143
14.718333333333334,168.85103991006184
14.751666666666667,168.8038010061487
14.785,169.49723145071982
14.818333333333335,168.73057574063722
14.851666666666668,169.36932447397564
14.885000000000002,168.83829309376756
14.918333333333335,169.3726812816189
14.951666666666668,169.3403409090909
14.985000000000001,169.014714204867
15.018333333333334,168.84454494064443
15.051666666666668,169.33766233766232
15.085,169.4188129899216
15.118333333333334,169.41143180531975
15.151666666666667,169.09529211571186
15.183333333333334,169.61123470522804
15.216666666666667,169.2391181458451
15.250000000000002,169.3355893965031
15.283333333333335,168.80213603147837
15.316666666666668,168.7447651386531
15.350000000000001,168.59921743991057
15.383333333333335,168.63743676222597
15.416666666666668,168.58356623812185
15.450000000000001,168.42646223736514
15.483333333333334,168.30782217220033
15.516666666666667,168.2152974504249
15.55,168.83463251670378
15.583333333333334,168.32667047401486
15.616666666666667,168.51223676721685
15.65,168.45392877331824
15.683333333333334,168.59083191850596
15.716666666666669,168.55744199207697
15.750000000000002,168.58342665173572
15.783333333333335,168.41567963902992
15.816666666666668,168.4454494064443
15.850000000000001,168.84171848501978
15.883333333333335,168.8680827277809
15.916666666666668,169.1928049465992
15.950000000000001,169.1131119864941
15.983333333333334,169.30170454545453
16.01666666666667,168.68661773009597
16.05,169.0744318181818
16.083333333333336,168.58347292015634
16.116666666666667,169.30410342889263
16.150000000000002,168.89198218262806
16.183333333333334,168.81013363028953
16.21666666666667,168.25688589094997
16.25,168.31545921277808
16.283333333333335,168.3853056646102
16.316666666666666,167.79645511720983
16.35,167.97390811117415
16.383333333333333,168.37646402677078
16.416666666666668,168.62055335968378
16.45,168.34376746785915
16.483333333333334,168.65484234234233
16.51666666666667,168.7119021134594
16.55,168.84684684684686
16.583333333333336,169.02089215132693
16.616666666666667,169.04807692307693
16.650000000000002,168.9966273187184
16.683333333333334,168.98650927487353
16.71666666666667,168.98191068400226
16.75,169.30457142857145
16.783333333333335,168.86730660643704
16.816666666666666,169.26651735722285
16.848333333333333,168.8012352610893
16.881666666666668,169.0256839754327
16.915000000000003,168.9420045045045
16.948333333333334,169.02037351443124
16.98166666666667,168.97849462365593
17.015,168.862689926843
17.048333333333336,168.84464385866517
17.081666666666667,168.99095534200112
17.115000000000002,169.00734878462407
17.148333333333333,168.9533295389869
17.18166666666667,168.46806105144148
17.215,168.43547470153496
17.248333333333335,168.48106274731487
17.281666666666666,168.86093838326738
17.315,169.30977953646126
17.348333333333333,169.14019219898248
17.381666666666668,169.17556818181816
17.415000000000003,169.25942857142857
17.448333333333334,169.0884009009009
17.48166666666667,168.9421866056096
17.515,168.61616161616163
17.548333333333336,168.01246458923512
17.581666666666667,169.19457013574663
17.615000000000002,167.92298850574713
17.648333333333333,168.59522455940873
17.68166666666667,168.53363482193328
17.715,168.62322140011383
17.748333333333335,168.50877192982458
17.781666666666666,168.67567567567568
17.815,168.51576576576576
17.848333333333333,168.52984234234233
17.881666666666668,168.99025787965616
17.915000000000003,168.61482313307133
17.948333333333334,169.21472737492974
17.98166666666667,168.93018018018017
18.015,168.83807928531547
18.048333333333336,168.76061120543295
18.081666666666667,168.9057029926595
18.115000000000002,169.5675070028011
18.148333333333333,169.63809523809522
18.18166666666667,168.76835515082527
18.215,168.8511471740347
18.248333333333335,168.64685908319186
18.281666666666666,168.8304420817012
18.315,168.5573122529644
18.348333333333336,168.65758754863813
18.381666666666668,168.3035413153457
18.415000000000003,168.46145251396646
18.448333333333334,168.77598665925512
18.48166666666667,168.4541832669323
18.513333333333335,168.57551937113982
18.546666666666667,169.03581580443432
18.580000000000005,168.97839681637294
18.613333333333333,168.64795058955644
18.64666666666667,168.53443369379625
18.68,168.60304912478824
18.713333333333335,168.19442865264355
18.746666666666666,168.45247581104155
18.78,168.40352874217416
18.813333333333336,168.44657998869417
18.846666666666668,168.57927876359471
18.880000000000003,168.5523755008586
18.913333333333334,168.47967945048654
18.94666666666667,168.64168086314595
18.98,168.4832291074474
19.013333333333335,168.73944850872257
19.046666666666667,168.75239167135624
19.080000000000005,168.9234285714286
19.113333333333333,169.14768883878241
19.14666666666667,169.22793296089384
19.18,168.85602240896358
19.213333333333335,168.86674195369847
19.246666666666666,168.81873954266592
19.28,168.6320177876598
19.313333333333336,168.6231239577543
19.346666666666668,168.67375489647455
19.380000000000003,168.6436909394108
19.413333333333334,168.778840742825
19.44666666666667,168.8620492272467
19.48,168.98178713716564
19.513333333333335,168.6494318181818
19.546666666666667,168.70340909090908
19.580000000000005,168.80836630864894
19.613333333333333,169.09788208357182
19.64666666666667,168.95308083663085
19.68,169.2146536920435
19.713333333333335,169.111927642736
19.746666666666673,168.84228571428574
19.78,168.93142214727376
19.813333333333336,168.9644699140401
19.846666666666668,168.66685878962537
19.880000000000003,168.92954545454543
19.913333333333334,168.7942693409742
19.94666666666667,168.7541547277937
19.98,168.43920454545454
20.013333333333335,168.6554285714286
20.046666666666667,168.29221902017292
20.080000000000005,167.76853423882287
20.113333333333333,168.619449128724
20.14666666666667,167.92416525183927
20.178333333333335,168.15804597701148
20.21166666666667,168.62028169014084
20.245,168.59718309859156
20.278333333333336,168.55323943661972
20.311666666666667,168.64017907106884
20.345000000000002,168.4536141149687
20.378333333333334,168.35344336937962
20.41166666666667,168.59931701764373
20.445,168.4579596412556
20.478333333333335,168.2772444946358
20.511666666666667,168.3512140033879
20.545,168.44144144144144
20.578333333333333,168.39695945945945
20.611666666666668,168.80123873873873
20.645,168.8108108108108
20.678333333333335,168.76632882882882
20.71166666666667,168.46430578976953
20.745,168.46899661781285
20.778333333333336,168.22403144300955
20.811666666666667,168.12423055400114
20.845000000000002,168.5186020293123
20.878333333333334,168.43536653609402
20.91166666666667,168.12252964426875
20.945,168.26933935629586
20.978333333333335,168.83657142857143
21.011666666666667,169.5640880858272
21.045,169.62717574396407
21.078333333333333,169.60540838852097
21.111666666666668,169.2037756801777
21.145000000000003,169.51528627015009
21.178333333333335,169.2355255761664
21.21166666666667,169.43056330172897
21.245,169.1583990980834
21.278333333333336,168.9358319136854
21.311666666666667,168.8892674616695
21.345000000000002,168.89340101522845
21.378333333333334,168.99322033898306
21.41166666666667,169.05988700564973
21.445,169.64689423615
21.478333333333335,169.54474708171205
21.511666666666667,168.96158192090397
21.545,169.1486259113853
21.578333333333333,169.56479909451048
21.611666666666668,169.56011396011394
21.645000000000003,169.57093821510298
21.678333333333335,168.46162592382035
21.71166666666667,169.14481969089866
21.745,169.15253272623792
21.778333333333336,169.17359134889017
21.811666666666667,169.2413204325555
21.843333333333334,169.60443938531589
21.87666666666667,169.56585641605426
21.91,169.16457142857143
21.943333333333335,169.16000000000003
21.976666666666667,169.41483979763913
22.01,169.48295454545453
22.043333333333333,169.4
22.076666666666668,169.2528409090909
22.110000000000003,169.16704545454544
22.143333333333334,169.20011305822499
22.17666666666667,169.12210288298473
22.21,169.23063877897116
22.243333333333336,169.37874505370263
22.276666666666667,169.53068181818182
22.310000000000002,169.36457142857145
22.343333333333334,168.73783629078417
22.37666666666667,169.42495784148397
22.41,169.23432155074116
22.443333333333335,169.26903262736118
22.476666666666667,169.385590778098
22.51,169.32161383285305
22.543333333333337,169.421325648415
22.576666666666668,169.37187681580477
22.610000000000003,169.31783846600814
22.643333333333334,169.2985590778098
22.67666666666667,169.29885714285714
22.71,169.16875
22.743333333333336,169.12443181818182
22.776666666666667,169.24280067758326
22.810000000000002,169.05776780706674
22.843333333333334,169.2632459564975
22.87666666666667,169.26903835464145
22.91,169.22587841606247
22.943333333333335,169.46446558477896
22.976666666666667,169.62702400893355
23.01,169.81253497481813
23.043333333333337,169.77628635346755
23.076666666666668,169.60366870483602
23.110000000000003,169.80581980973702
23.143333333333334,169.4941634241245
23.17666666666667,169.65193060996083
23.21,169.6222719641858
23.243333333333336,169.62674874090655
23.276666666666667,169.57190822607723
23.310000000000002,169.55474452554745
23.343333333333334,169.3526108927569
23.37666666666667,169.31948343627178
23.41,169.91323943661973
23.443333333333335,169.84284906726964
23.476666666666667,169.68760515984297
23.508333333333336,169.73337123365548
23.541666666666668,169.66685714285717
23.575000000000003,169.86628571428574
23.608333333333334,169.56193693693695
23.64166666666667,169.31986340352876
23.675,169.33010813887307
23.708333333333336,169.45930563460445
23.741666666666667,169.37592277115274
23.775000000000002,169.1834451901566
23.808333333333334,169.44776962168265
23.84166666666667,169.16331096196868
23.875,169.08948545861298
23.908333333333335,169.05984340044742
23.941666666666666,169.02908277404921
23.975,169.5237562884293
24.008333333333336,168.93956351426974
24.041666666666668,168.98601007274763
24.075000000000003,169.1781737193764
24.108333333333334,169.39853024307516
24.14166666666667,168.831096196868
24.175,168.7903587443946
24.208333333333336,168.7384701912261
24.241666666666667,168.9654210819855
24.275000000000002,168.75838926174495
24.308333333333334,168.73524451939292
24.34166666666667,168.88596981553943
24.375,168.93310848791455
24.408333333333335,168.95975405254333
24.44166666666667,168.91287240022484
24.475,168.73547659334463
24.508333333333336,168.9213041034289
24.541666666666668,168.39955232232793
24.575000000000003,168.85627081021087
24.608333333333334,168.97261039686975
24.64166666666667,169.104469273743
24.675,168.91615427613192
24.708333333333336,169.18974076116933
24.741666666666667,169.24430871737925
24.775000000000002,169.09673790776154
24.808333333333334,169.3106796116505
24.84166666666667,169.03870233352305
24.875,168.80414746543778
24.908333333333335,168.86742209631726
24.94166666666667,168.8071387449626
24.975,168.26750142287992
25.008333333333336,168.67052023121389
25.041666666666668,168.94285714285715
25.075000000000003,169.27350917431193
25.108333333333334,168.97623089983023
25.14166666666667,169.05053340819765
25.173333333333336,169.517627308338
25.206666666666667,169.30670391061452
25.240000000000002,168.8782412626832
25.273333333333333,168.76133786848072
25.30666666666667,168.49375
25.34,168.83754918493537
25.373333333333335,168.81899943788645
25.40666666666667,168.8195615514334
25.44,169.00333148250974
25.473333333333336,168.81421376608844
25.506666666666668,168.75503355704697
25.540000000000003,168.55269058295963
25.573333333333334,168.76961883408072
25.60666666666667,168.6778523489933
25.64,169.0080045740423
25.673333333333336,168.493288590604
25.706666666666667,168.42505592841164
25.740000000000002,169.1634285714286
25.773333333333333,169.27661971830986
25.80666666666667,169.22770611329221
25.840000000000003,169.25503355704697
25.873333333333335,169.1420581655481
25.90666666666667,169.25099375354912
25.94,168.73601789709173
25.973333333333336,168.63758389261744
26.006666666666668,169.4320916905444
26.040000000000003,169.2977142857143
26.073333333333334,169.26704545454544
26.10666666666667,169.2108805384184
26.14,169.21312394840157
26.173333333333336,169.0
26.206666666666667,169.3140773976444
26.240000000000002,169.5184554230551
26.273333333333333,169.24787294384572
26.30666666666667,168.9988782950084
26.340000000000003,168.99887892376682
26.373333333333335,169.10084507042254
26.40666666666667,169.20450704225354
26.44,169.24049217002238
26.473333333333336,169.1989938513136
26.506666666666668,169.3004459308807
26.540000000000003,168.74557522123894
26.573333333333334,168.669481981982
26.60666666666667,168.92729306487695
26.64,169.07997762863533
26.673333333333336,168.84451901565996
26.706666666666667,168.93607559755418
26.740000000000002,168.96553640911617
26.773333333333333,169.04852203011714
26.80666666666667,168.94279304542906
26.838333333333335,169.05183946488293
26.871666666666673,169.05254332029068
26.905,169.07307476110174
26.938333333333336,168.6703539823009
26.971666666666668,168.4840514829323
27.005000000000003,169.00450704225352
27.038333333333334,169.00169587337479
27.07166666666667,169.1994366197183
27.105,169.17014084507042
27.138333333333335,168.9420125071063
27.171666666666667,169.28851540616245
27.205000000000005,169.24593837535014
27.238333333333337,168.80775716694774
27.27166666666667,169.08549365692224
27.305000000000003,168.93232662192392
27.338333333333335,169.08537279453614
27.371666666666673,169.02162777461584
27.405,169.01650540694365
27.438333333333336,169.15082527034718
27.471666666666668,169.0358565737052
27.505000000000003,169.3892999430848
27.538333333333334,169.1271905031091
27.57166666666667,169.2035894559731
27.605,169.23331463825014
27.638333333333335,169.03898305084746
27.671666666666667,169.11833987661245
27.705000000000005,169.0527201346046
27.738333333333337,169.0310559006211
27.77166666666667,169.01524562394127
27.805000000000003,169.02258610954263
27.838333333333335,168.9356858281161
27.871666666666673,168.96446700507616
27.905,168.35230506545247
27.938333333333336,168.95828635851183
27.971666666666668,169.02989283699947
28.005000000000003,169.18659217877092
28.038333333333334,169.20189626324597
28.07166666666667,169.2069351230425
28.105,169.29709732498577
28.138333333333335,169.0615212527964
28.171666666666667,169.1639157655094
28.205000000000005,168.81189801699716
28.238333333333337,168.9654210819855
28.27166666666667,169.3212493028444
28.305000000000003,168.78077571669476
28.338333333333335,168.65725359911406
28.371666666666673,168.94491287240024
28.405,169.45195530726255
28.438333333333336,169.10677966101696
28.471666666666668,169.15161839863714
28.503333333333334,169.0217142857143
28.53666666666667,169.2931818181818
28.57,169.32581736189402
28.603333333333335,169.04581901489118
28.63666666666667,169.49577464788734
28.67,168.98880805819812
28.703333333333337,168.84415584415584
28.736666666666668,169.36065573770492
28.770000000000003,168.5230171935663
28.803333333333335,168.875
28.83666666666667,169.11204954954954
28.87,169.22128851540614
28.903333333333336,169.18760563380283
28.936666666666667,169.12633352049411
28.970000000000002,168.8586592178771
29.003333333333334,168.37206639954206
29.03666666666667,168.6031390134529
29.07,169.0330717488789
29.103333333333335,169.20558086560365
29.13666666666667,169.04737732656517
29.17,169.28959276018102
29.203333333333337,169.3043227665706
29.236666666666668,168.95416433761878
29.270000000000003,168.98862990335417
29.303333333333335,168.578223495702
29.33666666666667,168.67834934991518
29.37,168.938167509837
29.403333333333336,169.08762012436404
29.436666666666667,169.01874999999998
29.470000000000002,168.64285714285717
29.503333333333334,167.87803468208094
29.53666666666667,167.80346820809248
29.57,168.0395642201835
29.603333333333335,168.50658271322266
29.63666666666667,168.66135458167332
29.67,168.6374501992032
29.703333333333337,168.48150256118385
29.736666666666668,168.25441092771771
29.770000000000003,168.16334661354583
29.803333333333335,168.11326124075129
29.83666666666667,168.0865110984633
29.87,168.01707455890724
29.903333333333336,168.01329479768788
29.936666666666667,168.0219653179191
29.970000000000002,168.79488636363635
30.003333333333334,168.6092485549133
30.03666666666667,169.4247341913822
30.07,169.24902070509233
30.103333333333335,169.2566371681416
30.13666666666667,169.31871182676292
30.168333333333337,169.08138238573022
30.201666666666668,169.32680470061558
30.235000000000003,169.34395973154363
30.268333333333334,169.15616285554938
30.30166666666667,169.1487831858407
30.335,169.35398230088495
30.368333333333336,169.23713646532437
30.401666666666667,169.20639371845206
30.435000000000002,169.29658645775044
30.468333333333334,169.22216004476778
30.50166666666667,168.635593220339
30.535000000000004,168.99203640500568
30.568333333333335,168.88168373151308
30.60166666666667,169.1975377728036
30.635,169.12590934527142
30.668333333333337,169.0011191941802
30.701666666666668,168.78959149412424
30.735000000000003,168.89435840707964
30.768333333333334,168.91592920353983
30.80166666666667,168.6176142697882
30.835,168.7179203539823
30.868333333333336,168.70903010033445
30.901666666666667,168.68338907469342
30.935000000000002,168.81159420289856
30.968333333333334,168.99384443200896
31.00166666666667,168.88493607559755
31.035000000000004,168.91885842193622
31.068333333333335,169.2870733072188
31.10166666666667,169.27979854504758
31.135,169.0677583286279
31.168333333333337,168.9783722253842
31.201666666666668,168.88208357183743
31.235000000000003,168.95595708639186
31.268333333333334,168.69112627986348
31.30166666666667,168.86010072747624
31.335,168.68158925573587
31.368333333333336,169.18443316412862
31.401666666666667,169.16469261139312
31.435000000000002,168.74944690265485
31.468333333333334,169.59831932773108
31.50166666666667,168.77986725663717
31.535000000000004,168.6612992781788
31.568333333333335,168.5416899832121
31.60166666666667,168.6239507554561
31.635,168.48919226393627
31.668333333333337,168.61490683229812
31.701666666666668,168.7012987012987
31.735000000000003,168.69904009034443
31.768333333333334,168.7769621682665
31.80166666666667,168.95276038702335
31.833333333333336,168.8345567476002
31.866666666666667,168.61809903244168
31.900000000000002,168.6465273856578
31.933333333333337,168.5460191981931
31.96666666666667,169.1122905027933
32.0,169.12541806020067
32.03333333333334,169.00279329608938
32.06666666666667,169.02404921700224
32.1,168.53854686633392
32.13333333333333,168.58138238573022
32.16666666666667,168.57803790412487
32.2,168.70178372352285
32.233333333333334,168.8831096196868
32.266666666666666,169.023875624653
32.300000000000004,168.83221476510067
32.333333333333336,168.85762331838563
32.36666666666667,168.961175818081
32.4,168.89068600111545
32.43333333333334,168.76677852348993
32.46666666666667,169.19332956472581
32.5,168.76321839080458
32.53333333333334,168.9983041266252
32.56666666666667,168.6817142857143
32.6,168.88038010061487
32.63333333333333,168.88156424581004
32.66666666666667,168.79832402234635
32.7,168.6312849162011
32.733333333333334,168.41444444444446
32.766666666666666,169.08914285714286
32.800000000000004,168.79954827780912
32.833333333333336,169.01761363636362
32.86666666666667,169.3096186681844
32.9,169.07687959299037
32.93333333333334,168.67319884726226
32.96666666666667,169.0034090909091
33.0,168.41795311606631
33.03333333333334,168.4450768355151
33.06666666666667,168.36659192825113
33.1,168.42881165919283
33.13333333333333,168.3733183856502
33.16666666666667,168.38151260504202
33.2,168.30860033726813
33.233333333333334,168.36604624929498
33.266666666666666,168.41186440677967
33.300000000000004,168.2712915961647
33.333333333333336,168.14454443194603
33.36666666666667,168.07446221731936
33.400000000000006,167.86154708520178
33.43333333333334,168.02649379932356
33.46666666666667,167.890625
33.498333333333335,168.1950810508664
33.531666666666666,168.25799214806506
33.565000000000005,168.44729503625211
33.598333333333336,168.2788083192805
33.63166666666667,168.44182124789208
33.665,168.36143901068016
33.69833333333334,168.2705882352941
33.73166666666667,168.57439640651322
33.765,168.16154276131917
33.79833333333333,168.41922861934043
33.83166666666667,168.33667781493867
33.865,168.2540753232153
33.89833333333333,167.82985915492958
33.93166666666667,167.72400224845418
33.965,168.2695749440716
33.998333333333335,168.0403587443946
34.031666666666666,168.02684563758388
34.065000000000005,168.1121026213051
34.098333333333336,167.93325855300057
34.13166666666667,168.26268320180384
34.165,168.26021264689425
34.19833333333334,168.75817361894025
34.23166666666667,168.63945578231292
34.265,168.85487528344672
34.29833333333333,168.52806414662086
34.33166666666667,168.94137542277338
34.365,168.79451287793952
34.39833333333333,168.56801365964714
34.43166666666667,168.8873079112123
34.465,168.43409983174425
34.498333333333335,168.4506726457399
34.531666666666666,168.4370453273643
34.565000000000005,168.7876359473383
34.598333333333336,168.55036994877634
34.63166666666667,169.18125
34.665,169.03885714285715
34.69833333333334,168.55734870317005
34.73166666666667,168.35247747747746
34.765,168.3355855855856
34.79833333333334,168.03523489932886
34.83166666666667,168.0511679644049
34.865,167.91199551569505
34.89833333333333,167.9709732498577
34.93166666666667,168.09277177006263
34.965,168.27376209447922
34.998333333333335,168.12692088787708
35.031666666666666,168.5494880546075
35.065000000000005,168.77285633162975
35.098333333333336,168.5625
35.13166666666667,169.00343053173242
35.163333333333334,169.18337129840546
35.196666666666665,168.8551724137931
35.230000000000004,169.05209513023783
35.263333333333335,169.0643141718839
35.29666666666667,169.01672433679354
35.330000000000005,168.7966781214204
35.36333333333334,168.98351335986354
35.39666666666667,168.85402684563758
35.43,168.67077958496915
35.46333333333334,168.6249304396216
35.49666666666667,168.89464882943145
35.53,168.79003359462487
35.56333333333333,168.9588963963964
35.59666666666667,169.21432568550645
35.63,169.41192865105907
35.663333333333334,169.44208170117517
35.696666666666665,169.39299830604176
35.730000000000004,169.419481981982
35.763333333333335,169.2565266742338
35.79666666666667,168.93062605752962
35.830000000000005,169.00056369785793
35.86333333333334,168.9265536723164
35.89666666666667,168.83702441794435
35.93,168.84935356942103
35.96333333333334,169.017787659811
35.99666666666667,169.23670956911025
36.03,169.0341354224958
36.06333333333333,168.7539149888143
36.09666666666667,168.9798545047566
36.13,169.28483835005574
36.163333333333334,169.28260869565216
36.19666666666667,169.52322327923895
36.230000000000004,169.29757199322415
36.263333333333335,169.55019629837352
36.29666666666667,169.61942405420666
36.330000000000005,169.5440269209198
36.36333333333334,169.74034695019589
36.39666666666667,169.55517633674629
36.43,169.40372670807452
36.46333333333334,168.93167701863354
36.49666666666667,168.63255033557047
36.53,168.93690140845072
36.56333333333333,168.73687150837986
36.59666666666667,168.91472427515632
36.63,168.77131564088086
36.663333333333334,168.76526610644257
36.69666666666667,169.36455412226584
36.730000000000004,169.48560135516655
36.763333333333335,168.8648495173197
36.79666666666667,169.00965360590573
36.82833333333333,169.1420518602029
36.86166666666667,169.13303269447576
36.895,168.76179647527002
36.928333333333335,169.40654997176736
36.961666666666666,169.54626532887403
36.995000000000005,169.05741360089186
37.028333333333336,169.25847693162868
37.06166666666667,168.87270705947748
37.095,168.76677852348993
37.12833333333334,168.835005574136
37.16166666666667,168.7734899328859
37.195,168.55518394648828
37.22833333333334,168.90815744438106
37.26166666666667,169.26535211267606
37.295,169.24915062287656
37.32833333333333,169.27831531018782
37.36166666666667,169.4268907563025
37.395,169.17422969187675
37.428333333333335,169.1737218251787
37.461666666666666,168.8491403216861
37.495000000000005,169.10806363137687
37.528333333333336,169.09840571742717
37.56166666666667,169.41403699673558
37.595,169.73745819397993
37.62833333333334,169.65690140845072
37.66166666666667,169.834528405957
37.695,169.72068584070797
37.72833333333334,169.67533185840708
37.76166666666667,169.5877094972067
37.795,169.64134078212288
37.82833333333333,169.51565995525726
37.86166666666667,169.5958751393534
37.895,169.5405707890319
37.928333333333335,169.26133184107445
37.961666666666666,168.7707399103139
37.995000000000005,168.78205128205127
38.028333333333336,169.56424581005587
38.06166666666667,169.4263610315186
38.095000000000006,169.03575547866205
38.12833333333334,169.36517806670435
38.16166666666667,168.57126632595117
38.195,169.1903409090909
38.22833333333334,168.95759312320916
38.26166666666667,169.24167137210614
38.295,169.3501989766913
38.32833333333333,169.65034168564918
38.36166666666667,169.12285714285716
38.395,169.3174157303371
38.428333333333335,169.49719101123597
38.461666666666666,169.0781686208822
38.49333333333333,169.50683371298405
38.52666666666667,168.87795275590554
38.56,169.24885057471263
38.593333333333334,168.91311754684838
38.62666666666667,168.9107848673066
38.66000000000001,168.66401364411595
38.693333333333335,168.73852183650615
38.72666666666667,168.66911349520043
38.760000000000005,169.07340485601355
38.79333333333334,168.9718309859155
38.82666666666667,168.90633763320247
38.86,169.23111612175873
38.89333333333334,169.1781285231116
38.92666666666667,169.29555808656036
38.96,169.22464183381086
38.99333333333333,169.25934314835789
39.02666666666667,169.45714285714286
39.06,169.33258678611423
39.093333333333334,169.15108695652174
39.12666666666667,168.89023717595148
39.16000000000001,168.94020844761383
39.193333333333335,168.82049861495847
39.22666666666667,169.51968940654467
39.260000000000005,169.5970066518847
39.29333333333334,169.26082068577853
39.32666666666667,169.39911061700946
39.36,169.41523068371316
39.39333333333334,169.60590858416944
39.42666666666667,169.27814938684503
39.46,169.36763070077865
39.49333333333335,168.97203579418345
39.52666666666667,169.0822679266259
39.56,169.15212527964206
39.593333333333334,169.19510839355198
39.62666666666667,169.38740245261985
39.66000000000001,169.39410783768759
39.693333333333335,169.52918287937743
39.72666666666667,169.93530701754386
39.760000000000005,169.39241917502787
39.79333333333334,169.1917732073374
39.82666666666667,169.26477146042365
39.86,169.16164994425864
39.89333333333334,169.0284280936455
39.92666666666667,169.2936507936508
39.96,168.76696329254727
39.99333333333335,169.51061452513966
40.02666666666667,169.50528071150637
40.06,169.49273743016758
40.093333333333334,169.1944757609921
40.12666666666667,169.04403567447045
40.15833333333334,169.11621472053125
40.19166666666667,169.54597701149424
40.225,168.99889380530973
40.25833333333333,169.2210065645514
40.29166666666667,169.0582154515778
40.325,169.47039291643608
40.358333333333334,169.15907844212836
40.391666666666666,169.34533183352082
40.425000000000004,169.37535491198184
40.458333333333336,169.39241917502787
40.49166666666667,169.12465526751242
40.525000000000006,169.19084390512964
40.55833333333334,169.11211778029445
40.59166666666667,169.15774958632102
40.625,169.13318410744264
40.65833333333334,168.96186203028603
40.69166666666667,169.02341137123744
40.725,169.00167224080266
40.75833333333333,168.826135726304
40.79166666666667,168.92861157953908
40.825,169.228266965788
40.858333333333334,169.02248454187747
40.89166666666667,168.9632144878325
40.925000000000004,169.19241652518394
40.958333333333336,169.17206132879045
40.99166666666667,169.50829646017698
41.025000000000006,169.72458830210107
41.05833333333334,169.16107382550337
41.09166666666667,169.67950169875425
41.125,169.13254371122392
41.15833333333334,169.01692047377327
41.19166666666667,169.1911186059584
41.225,169.1190073322053
41.25833333333333,168.55351170568562
41.29166666666667,168.62057522123894
41.325,168.5320796460177
41.358333333333334,168.81733406472847
41.39166666666667,168.83783783783784
41.425000000000004,169.20293797606095
41.458333333333336,168.83277591973243
41.49166666666667,169.27146042363432
41.525000000000006,169.07882882882882
41.55833333333334,168.89802631578945
41.59166666666667,169.01342281879195
41.625,168.77783872737248
41.65833333333334,169.35977653631284
41.69166666666667,169.06883259911896
41.725,168.90228922389727
41.75833333333333,168.74534161490683
41.79166666666667,168.69734613212873
41.82333333333334,168.50387596899225
41.85666666666667,168.8236582694414
41.89,168.74473975636766
41.92333333333334,168.8199105145414
41.95666666666667,168.78080697928027
41.99,168.97356828193836
42.02333333333333,169.37932960893852
42.05666666666667,168.50439077936335
42.09,168.7599328483492
42.123333333333335,168.64178272980502
42.156666666666666,168.64829106945976
42.190000000000005,168.3390928725702
42.223333333333336,168.32667386609072
42.25666666666667,169.10344827586206
42.290000000000006,168.7948717948718
42.32333333333334,168.91229050279327
42.35666666666667,169.17218543046357
42.39,169.18561872909697
42.42333333333334,168.92068774265115
42.45666666666667,168.28359846407022
42.49,168.58041179744018
42.52333333333333,169.86946902654867
42.55666666666667,168.65701802293827
42.59,168.6681818181818
42.623333333333335,169.10912143256857
42.656666666666666,168.72240802675586
42.690000000000005,168.80579216354343
42.723333333333336,168.47629670942555
42.75666666666667,168.3144758735441
42.790000000000006,168.43935159306875
42.82333333333334,168.10296586457753
42.85666666666667,168.33845278725823
42.89,168.67204002223457
42.92333333333334,167.92017495899398
42.95666666666667,168.98379888268155
42.99,167.81309457190824
43.02333333333333,168.81281618887016
43.05666666666667,168.06360619469027
43.09,168.16098378982673
43.123333333333335,168.23741007194243
43.156666666666666,168.3178251121076
43.190000000000005,168.37542857142859
43.223333333333336,168.53022739877983
43.25666666666667,168.6540600667408
43.290000000000006,168.04230118443317
43.32333333333334,168.32942490228922
43.35666666666667,168.2634200332042
43.39,167.92436974789914
43.42333333333334,168.30011261261262
43.45666666666667,168.12556306306305
43.48833333333334,168.03153153153153
43.52166666666667,167.95777027027026
43.555,168.66079295154188
43.58833333333334,168.35030777839955
43.62166666666667,169.23460898502498
43.655,168.59626988480528
43.68833333333334,169.07115063924402
43.72166666666667,168.85346756152126
43.755,169.09177392277562
43.788333333333334,168.98824846110801
43.82166666666667,168.80011261261262
43.855000000000004,168.8704954954955
43.888333333333335,168.6996644295302
43.92166666666667,168.6193404136389
43.955000000000005,168.5946248600224
43.98833333333334,168.35483870967744
44.02166666666667,168.81746920492722
44.055,168.55114589155954
44.08833333333334,168.67133258678612
44.12166666666667,168.58614864864865
44.155,168.45579352004393
44.18833333333334,168.53348467650397
44.22166666666667,168.5051078320091
44.255,168.38516878804649
44.288333333333334,168.09716823986676
44.32166666666667,168.51920903954803
44.355000000000004,168.69322033898305
44.388333333333335,169.05711086226205
44.42166666666667,168.9018201875345
44.455000000000005,169.1282194848824
44.48833333333334,168.96973032471107
44.52166666666667,168.9460511679644
44.555,168.71477467199085
44.58833333333334,168.52625760088446
44.62166666666667,169.01410039481107
44.655,168.6200221238938
44.68833333333334,169.05995475113124
44.72166666666667,169.02581369248037
44.755,169.49413079932924
44.788333333333334,169.52335928809788
44.82166666666667,169.4222972972973
44.855000000000004,169.30123873873873
44.888333333333335,169.19316909294514
44.92166666666667,169.40427927927928
44.955000000000005,169.4762437115707
44.98833333333334,169.3957158962796
45.02166666666667,168.9055338177753
45.055,168.93180547792062
45.08833333333334,169.14589155953047
45.12166666666667,169.3249016301293
45.153333333333336,169.59065315315314
45.18666666666667,169.36221352711013
45.220000000000006,169.23915461624026
45.25333333333334,169.36954087346024
45.28666666666667,168.9921875
45.32,168.5450935904708
45.35333333333334,168.98984771573606
45.38666666666667,169.09837898267187
45.42,169.0570150922303
45.45333333333333,168.95081050866406
45.48666666666667,168.9814189189189
45.52,168.44261363636363
45.553333333333335,168.4156660949114
45.58666666666667,168.80045095828635
45.620000000000005,168.64093767867354
45.653333333333336,168.48484848484847
45.68666666666667,168.60377358490567
45.720000000000006,168.7095483133219
45.75333333333334,168.88465909090908
45.78666666666667,168.72041166380788
45.82,169.01306818181817
45.85333333333334,168.98920454545453
45.88666666666667,168.9659090909091
45.92,168.86420454545453
45.95333333333333,168.54185779816515
45.98666666666667,168.95885005636978
46.02,168.76678043230945
46.053333333333335,168.81679819616684
46.08666666666667,168.60682326621924
46.120000000000005,168.37542277339347
46.153333333333336,168.66130820399113
46.18666666666667,168.7193566278425
46.220000000000006,168.54530201342283
46.25333333333334,168.50678733031677
46.28666666666667,168.17626925270963
46.32,167.8703186137507
46.35333333333334,168.14493564633466
46.38666666666667,168.5956618464961
46.42,168.51593068753493
46.45333333333333,168.8042151968941
46.48666666666667,168.6722408026756
46.52,168.68194522079375
46.553333333333335,168.26136363636363
46.58666666666667,168.82951369480156
46.620000000000005,168.77864728898825
46.653333333333336,168.6825041922862
46.68666666666667,168.57672849915684
46.720000000000006,168.31257142857143
46.75333333333334,168.71219786396853
46.78666666666667,168.95309882747068
46.82,168.86340921710163
46.85166666666667,168.73792337590228
46.885000000000005,168.40883668903803
46.91833333333334,168.41212458286986
46.95166666666667,168.50782997762863
46.98500000000001,168.64115646258503
47.01833333333334,168.0195968645017
47.05166666666667,168.49054505005563
47.085,168.57918298824848
47.11833333333335,168.5299384443201
47.15166666666667,168.3626251390434
47.185,168.74929418407677
47.218333333333334,168.20291479820628
47.25166666666667,168.70167597765362
47.28500000000001,168.35382895472333
47.318333333333335,168.38422818791946
47.35166666666667,168.18864774624373
47.385000000000005,168.32593856655288
47.41833333333334,168.3681535855449
47.45166666666667,168.72915500839397
47.48500000000001,168.2817617165443
47.51833333333334,168.64285714285714
47.55166666666667,168.56022727272727
47.585,169.07644744238337
47.61833333333335,169.00056850483227
47.65166666666667,169.31084879145587
47.685,168.24247491638795
47.718333333333334,168.99832402234637
47.75166666666667,168.87296233839237
47.78500000000001,168.56627185561197
47.818333333333335,168.54314720812184
47.85166666666667,168.48843767625496
47.885000000000005,168.7202447163515
47.91833333333334,168.88502523836232
47.95166666666667,169.10293303818483
47.98500000000001,169.00776053215077
48.01833333333334,168.90939597315435
48.05166666666667,168.72778088317497
48.085,168.12311135982094
48.11833333333335,168.44545454545454
48.15166666666667,168.8133035215204
48.185,168.79199110122357
48.218333333333334,168.84037819799778
48.25166666666667,169.1218974076117
48.28500000000001,168.63579545454544
48.318333333333335,168.59204545454546
48.35166666666667,168.95360536612634
48.385000000000005,168.31024774774775
48.41833333333334,168.66875
48.45166666666667,168.48796866256296
48.48500000000001,168.42865137101288
48.51666666666667,168.47972972972974
48.550000000000004,168.41698841698843
48.583333333333336,168.6231802911534
48.61666666666667,168.67693169092945
48.650000000000006,168.61373873873873
48.68333333333334,168.45744680851064
48.71666666666667,168.72612921669526
48.75,168.93968432919954
48.78333333333334,168.92238972640982
48.81666666666667,168.53382187147687
48.85,168.4750420639372
48.88333333333334,168.25264329437954
48.91666666666667,168.5639307649358
48.95,168.5287548855388
48.983333333333334,168.3119060927893
49.01666666666667,168.55334846765038
49.050000000000004,168.5320796460177
49.083333333333336,168.83683628318585
49.11666666666667,168.73917869034406
49.150000000000006,168.81592039800995
49.18333333333334,168.58160403813798
49.21666666666667,168.8119419642857
49.25,168.952142459655
49.28333333333334,168.80686936936937
49.31666666666667,168.72452407614782
49.35,168.68024553571428
49.38333333333334,168.77397644419517
49.41666666666667,168.79192030990592
49.45,168.71635150166853
49.483333333333334,168.64799560680945
49.51666666666667,168.4847982310669
49.550000000000004,168.7412935323383
49.583333333333336,169.08511806699616
49.61666666666667,168.99610027855155
49.650000000000006,169.30752333882484
49.68333333333334,169.15997770345595
49.71666666666667,169.3491975650249
49.75,169.1036789297659
49.78333333333334,169.20143884892084
49.81666666666667,169.07246376811594
49.85,169.25361512791991
49.88333333333334,168.42309891366494
49.91666666666667,169.14864115363284
49.95,169.30923248053392
49.983333333333334,169.0509977827051
50.01666666666667,169.24723451327432
50.050000000000004,169.02600996126174
50.083333333333336,168.848518725545
50.11666666666667,169.45566090351366
50.150000000000006,168.98874507597074
50.18166666666667,169.38448566610455
50.215,169.06972789115648
50.248333333333335,169.3871508379888
50.28166666666667,168.07325194228636
50.315000000000005,169.05228031145717
50.348333333333336,168.83547127718907
50.38166666666667,169.1602023608769
50.415000000000006,169.37443693693695
50.44833333333334,169.14364336818932
50.48166666666667,169.14414414414415
50.515,169.0033783783784
50.54833333333334,168.92567567567568
50.58166666666667,168.89695945945945
50.615,169.094012311136
50.64833333333333,168.6519580805295
50.68166666666667,168.7497168742922
50.715,168.67383918459797
50.748333333333335,168.83090705487123
50.78166666666667,169.07834359261332
50.815000000000005,169.1068830442082
50.848333333333336,168.8875209848909
50.88166666666667,168.68561872909697
50.915000000000006,168.73592342342343
50.94833333333334,169.02646396396395
50.98166666666667,168.7973124300112
51.015,168.8733108108108
51.04833333333334,168.79617117117118
51.08166666666667,169.10184667039732
51.115,169.00111049416992
51.14833333333333,169.06552863436124
51.18166666666667,169.3068753493572
51.215,169.47274749721913
51.248333333333335,169.29738933030646
51.28166666666667,169.0094078583287
51.315000000000005,168.8921023359288
51.348333333333336,169.58488437676257
51.38166666666667,168.80302182428653
51.415000000000006,168.96820809248555
51.44833333333334,169.15711009174314
51.48166666666667,168.56473988439308
51.515,168.5577142857143
51.54833333333334,168.8209209778283
51.58166666666667,169.06708715596332
51.615,169.20337013364323
51.64833333333333,169.24393063583815
51.68166666666667,169.1618398637138
51.715,169.08708025042688
51.748333333333335,169.22930648769574
51.78166666666667,169.07178631051752
51.815000000000005,168.19725557461408
51.84666666666667,168.41756988020535
51.88,168.47347404449513
51.913333333333334,168.37793024585477
51.94666666666667,168.43255813953488
51.980000000000004,168.27050113895217
52.013333333333335,168.327418431597
52.04666666666667,168.00843170320405
52.080000000000005,168.35145964510588
52.11333333333334,168.01961883408072
52.14666666666667,168.24772727272727
52.18000000000001,168.02728823194997
52.21333333333334,168.13579545454544
52.24666666666667,168.12443438914028
52.28,168.28011363636364
52.31333333333334,168.4576463899943
52.34666666666667,169.04488636363635
52.38,167.908371040724
52.413333333333334,168.3517877739331
52.44666666666667,168.24018212862836
52.480000000000004,168.26069819819818
52.513333333333335,168.36599099099098
52.54666666666667,168.60247747747746
52.580000000000005,169.37429537767756
52.61333333333334,168.90151091214327
52.64666666666667,168.87185226636822
52.68000000000001,168.6689189189189
52.71333333333334,168.76329043088978
52.74666666666667,168.7458006718925
52.78,169.24843661171118
52.81333333333334,168.7290033594625
52.84666666666667,169.33502538071068
52.88,168.30357142857142
52.913333333333334,169.38816901408453
52.94666666666667,168.81978396816373
52.980000000000004,169.103081232493
53.013333333333335,169.0275178866263
53.04666666666667,169.2728785357737
53.080000000000005,169.30033370411567
53.11333333333334,169.36413945766463
53.14666666666667,169.5591814159292
53.18000000000001,169.02530933633298
53.21333333333334,169.25884955752213
53.24666666666667,169.17069154774973
53.28,169.11615044247787
53.31333333333334,169.04347826086956
53.34666666666667,168.9517203107658
53.38,169.10647639956093
53.413333333333334,169.03163152053276
53.44666666666667,169.10676940011007
53.480000000000004,168.74734488541085
53.51166666666667,169.01153212520595
53.545,169.55990914253266
53.57833333333334,169.48960089938168
53.61166666666667,169.11583659764972
53.645,169.18069584736253
53.678333333333335,168.7605872388481
53.71166666666667,168.31246506428172
53.745000000000005,168.7322526551146
53.778333333333336,169.12157721796277
53.81166666666667,169.1721632196758
53.845000000000006,169.3698553948832
53.87833333333334,169.63741721854305
53.91166666666667,169.628587196468
53.945,169.68471517202482
53.97833333333334,169.7898633257403
54.01166666666667,169.7001121076233
54.045,169.68438914027152
54.07833333333334,169.1054384017758
54.11166666666667,169.83071748878925
54.145,169.7830717488789
54.178333333333335,169.45675522894288
54.21166666666667,169.2391426959955
54.245000000000005,169.525
54.278333333333336,169.5047995482778
54.31166666666667,170.09920634920636
54.345000000000006,170.13548752834467
54.37833333333334,170.2990444069702
54.41166666666667,169.92836839113133
54.445,169.69187038089822
54.47833333333334,169.31897034135423
54.51166666666667,169.58351769911505
54.545,169.66088416340236
54.57833333333334,169.68494683827646
54.61166666666667,169.61275881365418
54.645,169.7056818181818
54.678333333333335,169.5580204778157
54.71166666666667,169.22981366459626
54.745000000000005,169.94980259447266
54.778333333333336,169.5798319327731
54.81166666666667,169.73166666666665
54.845000000000006,169.39731393396755
54.87833333333334,169.7123519458545
54.91166666666667,169.72671156004492
54.945,169.68305084745762
54.97833333333334,169.37401129943504
55.01166666666667,169.6013437849944
55.045,169.5828667413214
55.07833333333334,169.64732650739475
55.11166666666667,169.42087729039423
55.145,169.37929125138427
55.17666666666667,169.5622914349277
55.21,169.53738839285714
55.24333333333335,169.64118303571428
55.27666666666667,169.5189732142857
55.31,169.5639599555061
55.343333333333334,169.71051183269125
55.37666666666667,169.74298293891027
55.41000000000001,169.20086393088553
55.443333333333335,169.58472686733555
55.476666666666674,169.2237061769616
55.510000000000005,169.4519711271516
55.54333333333334,169.23447118074986
55.57666666666667,169.1393396754337
55.61000000000001,169.8979933110368
55.64333333333334,170.06618464961068
55.67666666666667,169.825361512792
55.71,169.6968854282536
55.74333333333335,169.53224901850814
55.77666666666667,169.8841634023503
55.81,169.5919055649241
55.843333333333334,169.55977653631282
55.87666666666667,169.79294907666483
55.91000000000001,169.32699832308552
55.943333333333335,168.8998862343572
55.976666666666674,168.83883603805262
56.010000000000005,168.65987892129883
56.04333333333334,168.4661487236404
56.07666666666667,168.6118568232662
56.11000000000001,169.14875565610862
56.14333333333334,168.85027932960892
56.17666666666667,169.236444941308
56.21,168.94933920704847
56.24333333333335,169.309111235327
56.27666666666667,169.31134712129682
56.31,169.0435022026432
56.343333333333334,168.77255118981736
56.37666666666667,168.8203693340795
56.41000000000001,168.61542792792793
56.443333333333335,168.82713963963963
56.476666666666674,168.84853603603602
56.510000000000005,168.91107382550337
56.54333333333334,168.70050761421322
56.57666666666667,169.4618451025057
56.61000000000001,168.80165745856354
56.64333333333334,169.2910022779043
56.67666666666667,167.93433500278243
56.71,168.58459808881395
56.74333333333335,168.7470946319867
56.77666666666667,168.71388420460934
56.81,168.7130144605117
56.84166666666667,168.4789207419899
56.87500000000001,168.73307218802464
56.90833333333334,168.69932432432432
56.94166666666667,169.37774030354132
56.975,168.63555555555556
57.00833333333334,168.90253303964758
57.04166666666667,169.1624449339207
57.075,169.0988339811216
57.108333333333334,169.3661894273128
57.14166666666667,169.10304054054055
57.175000000000004,169.23894795747063
57.208333333333336,169.28322072072072
57.24166666666667,169.34037819799778
57.275000000000006,169.18288590604027
57.30833333333334,169.1549217002237
57.34166666666667,168.92825361512791
57.37500000000001,168.998891966759
57.40833333333334,169.07393209200438
57.44166666666667,168.8765227021041
57.475,169.09955257270693
57.50833333333334,168.95973154362414
57.54166666666667,169.0111234705228
57.575,169.06117908787542
57.608333333333334,169.15962180200222
57.64166666666667,169.12912241475686
57.675000000000004,168.94798007747647
57.708333333333336,169.31078814980435
57.74166666666667,169.35627753303967
57.775000000000006,169.3716960352423
57.80833333333334,169.51817180616743
57.84166666666667,169.51101321585904
57.87500000000001,169.19138220481256
57.90833333333334,168.91924778761063
57.94166666666667,168.76576576576576
57.975,169.3364537444934
58.00833333333334,168.9171332586786
58.04166666666667,169.2792892837313
58.075,169.05473453749318
58.108333333333334,169.34251101321587
58.14166666666667,169.26046255506608
58.175000000000004,169.23313219967088
58.208333333333336,169.42002176278564
58.24166666666667,169.79539066891513
58.275000000000006,169.07803790412487
58.30833333333334,169.36812881732374
58.34166666666667,169.29882484611082
58.37500000000001,169.17004504504504
58.40833333333334,168.95805369127515
58.44166666666667,168.9627363737486
58.475,169.16675993284835
58.50666666666667,169.1007882882883
58.540000000000006,169.2305540011192
58.57333333333334,169.13213885778276
58.60666666666667,169.3296460176991
58.64,168.95072788353863
58.67333333333334,168.7441209406495
58.70666666666667,169.01548672566372
58.74,168.93614658523043
58.77333333333334,169.3994382022472
58.80666666666667,169.1205357142857
58.84,169.0654258319233
58.873333333333335,168.9379932356257
58.90666666666667,169.1358300726663
58.940000000000005,169.05254332029068
58.973333333333336,168.70169491525425
59.00666666666667,169.19908987485778
59.040000000000006,169.4043746494672
59.07333333333334,169.40796857463525
59.10666666666667,169.39029892837002
59.14,169.44782853919912
59.17333333333334,169.51001112347052
59.20666666666667,169.34166666666667
59.24,169.37264673311185
59.27333333333334,168.8271876719868
59.30666666666667,168.66403162055335
59.34,168.54273029966703
59.373333333333335,169.14061624649858
59.40666666666667,168.75139043381535
59.440000000000005,169.50535815002823
59.473333333333336,169.18131256952168
59.50666666666667,169.07429829389102
59.540000000000006,169.2906784335356
59.57333333333334,169.77212389380531
59.60666666666667,169.6747463359639
59.64,169.65397536394178
59.67333333333334,169.56020066889633
59.70666666666667,169.51212789415655
59.74,169.62348401323044
59.77333333333334,169.88423373759647
59.80666666666667,170.09510250569474
59.84,170.32064913262454
59.873333333333335,169.80992196209587
59.90666666666667,169.6921797004992
59.940000000000005,169.73289183222957
59.973333333333336,169.70555243970836
60.00666666666667,169.32397408207345
